"Global_Index", "x_coord", "y_coord", "Pressure", "Pressure_Coefficient", "Skin_Friction_Coefficient"
96, 1.000000000000000e+00, 5.352202629500000e-08, 1.001571837561143e+00, 9.964682947046548e-02, 6.708434198518713e-05
97, 9.979658291430820e-01, -2.881794857271442e-04, 1.002412119925291e+00, 1.529979628443074e-01, 2.137929363795653e-03
98, 9.957820729228830e-01, -5.967886532841323e-04, 1.002247630934151e+00, 1.425542424007598e-01, 2.923357706671655e-03
99, 9.934384637941019e-01, -9.270488597400344e-04, 1.002130606926909e+00, 1.351241645070554e-01, 2.950214828995107e-03
100, 9.909241437988340e-01, -1.280289614488857e-03, 1.002059250822980e+00, 1.305936290820436e-01, 2.801242340017835e-03
101, 9.882276487590520e-01, -1.657893415929766e-03, 1.002020200280751e+00, 1.281142355166692e-01, 2.656668413075424e-03
102, 9.853368952903420e-01, -2.061293361678059e-03, 1.002003006650798e+00, 1.270225790878936e-01, 2.578838822021196e-03
103, 9.822391712272380e-01, -2.491969834944034e-03, 1.001998154346974e+00, 1.267144970437063e-01, 2.561237151075529e-03
104, 9.789211302792580e-01, -2.951446198418808e-03, 1.001999049500985e+00, 1.267713320827982e-01, 2.573717410262562e-03
105, 9.753687917200690e-01, -3.441283350046040e-03, 1.002002336468400e+00, 1.269800279265321e-01, 2.591924518546596e-03
106, 9.715675460812661e-01, -3.963073044857662e-03, 1.002006956150046e+00, 1.272733403440602e-01, 2.605187311281151e-03
107, 9.675021678017420e-01, -4.518429822299970e-03, 1.002012938926903e+00, 1.276531982818827e-01, 2.612333081486186e-03
108, 9.631568360186920e-01, -5.108981458577545e-03, 1.002020606007033e+00, 1.281399958538347e-01, 2.615664668725153e-03
109, 9.585151646336830e-01, -5.736357801147233e-03, 1.002030222835338e+00, 1.287505866640357e-01, 2.617453130741877e-03
110, 9.535602429161220e-01, -6.402177880090121e-03, 1.002041932112977e+00, 1.294940310818438e-01, 2.618922323516536e-03
111, 9.482746880048850e-01, -7.108035234927211e-03, 1.002055797970194e+00, 1.303744008590825e-01, 2.620445687150630e-03
112, 9.426407105822270e-01, -7.855481327107042e-03, 1.002071864444656e+00, 1.313944920313631e-01, 2.621983249922133e-03
113, 9.366401951685740e-01, -8.646007049145999e-03, 1.002090190372683e+00, 1.325580402290311e-01, 2.623398100802248e-03
114, 9.302547962764830e-01, -9.481022247350132e-03, 1.002110860628941e+00, 1.338704343069383e-01, 2.624585362944393e-03
115, 9.234660517702999e-01, -1.036183331256595e-02, 1.002133983713817e+00, 1.353385631620735e-01, 2.625496834932038e-03
116, 9.162555145009680e-01, -1.128961886009035e-02, 1.002159685103190e+00, 1.369703934977111e-01, 2.626120007002773e-03
117, 9.086049032279730e-01, -1.226540359178139e-02, 1.002188101788926e+00, 1.387746231893381e-01, 2.626454628016769e-03
118, 9.004962734807360e-01, -1.329003047580013e-02, 1.002219378366698e+00, 1.407604328925916e-01, 2.626499283832669e-03
119, 8.919122087664410e-01, -1.436413140679768e-02, 1.002253664471080e+00, 1.429373231925831e-01, 2.626245735563568e-03
120, 8.828360320456839e-01, -1.548809659764239e-02, 1.002291113237448e+00, 1.453150169469556e-01, 2.625681614318669e-03
121, 8.732520369379220e-01, -1.666204293780597e-02, 1.002331880138113e+00, 1.479033853900110e-01, 2.624792032478609e-03
122, 8.631457374960591e-01, -1.788578165295289e-02, 1.002376121927604e+00, 1.507123811663886e-01, 2.623561059055311e-03
123, 8.525041346896460e-01, -1.915878563887750e-02, 1.002423995506480e+00, 1.537519661924143e-01, 2.621975091019958e-03
124, 8.413159970120960e-01, -2.048015683562499e-02, 1.002475656947353e+00, 1.570320498165440e-01, 2.620023227709967e-03
125, 8.295721517532200e-01, -2.184859409030840e-02, 1.002531261136965e+00, 1.605624660940905e-01, 2.617697134231080e-03
126, 8.172657826166300e-01, -2.326236201353585e-02, 1.002590961465165e+00, 1.643529540397515e-01, 2.614993074270764e-03
127, 8.043927284804649e-01, -2.471926132528821e-02, 1.002654909859098e+00, 1.684131597983686e-01, 2.611910522427000e-03
128, 7.909517772165610e-01, -2.621660130830753e-02, 1.002723258190862e+00, 1.727527260197110e-01, 2.608456969587693e-03
129, 7.769449477048480e-01, -2.775117492280826e-02, 1.002796159183406e+00, 1.773813493756586e-01, 2.604640924472897e-03
130, 7.623777524675190e-01, -2.931923744885270e-02, 1.002873768538849e+00, 1.823089156913747e-01, 2.600479921620599e-03
131, 7.472594328699030e-01, -3.091648930628510e-02, 1.002956248288812e+00, 1.875457126642608e-01, 2.595991184312349e-03
132, 7.316031585245610e-01, -3.253806414443636e-02, 1.003043768971714e+00, 1.931025681044239e-01, 2.591200318239154e-03
133, 7.154261825498690e-01, -3.417852304597178e-02, 1.003136514824408e+00, 1.989911795617806e-01, 2.586125905779033e-03
134, 6.987499446352849e-01, -3.583185629664898e-02, 1.003234687074306e+00, 2.052243233493816e-01, 2.580795008108476e-03
135, 6.816001145580280e-01, -3.749149362242028e-02, 1.003338509114811e+00, 2.118161831413309e-01, 2.575221971734191e-03
136, 6.640065698311099e-01, -3.915032464739417e-02, 1.003448231128609e+00, 2.187826435145856e-01, 2.569422231987592e-03
137, 6.460033025913720e-01, -4.080073056778152e-02, 1.003564133544968e+00, 2.261415094593573e-01, 2.563395458632999e-03
138, 6.276282525902900e-01, -4.243462858861940e-02, 1.003686532055612e+00, 2.339128248465782e-01, 2.557129301259751e-03
139, 6.089230652104620e-01, -4.404353001843556e-02, 1.003815780413338e+00, 2.421190501174930e-01, 2.550589388783796e-03
140, 5.899327756923080e-01, -4.561861289428874e-02, 1.003952273448634e+00, 2.507852538144776e-01, 2.543713705983972e-03
141, 5.707054231490321e-01, -4.715080946865579e-02, 1.004096445651186e+00, 2.599390225180881e-01, 2.536416274335848e-03
142, 5.512916003363530e-01, -4.863090808605761e-02, 1.004248770277015e+00, 2.696104041577150e-01, 2.528579470636693e-03
143, 5.317439474301470e-01, -5.004966851411126e-02, 1.004409758941195e+00, 2.798318821523015e-01, 2.520051193569121e-03
144, 5.121166001065770e-01, -5.139794887290158e-02, 1.004579958080006e+00, 2.906381507855692e-01, 2.510647086097302e-03
145, 4.924646039207970e-01, -5.266684144175821e-02, 1.004759938773693e+00, 3.020654690339688e-01, 2.500135523250918e-03
146, 4.728433082391680e-01, -5.384781416072871e-02, 1.004950289522947e+00, 3.141512019311084e-01, 2.488267496771277e-03
147, 4.533077537294870e-01, -5.493285287912920e-02, 1.005151608262135e+00, 3.269333134727912e-01, 2.474756525401803e-03
148, 4.339120676130220e-01, -5.591460064650605e-02, 1.005364484470690e+00, 3.404492308349651e-01, 2.459291583439546e-03
149, 4.147088805266780e-01, -5.678648875377961e-02, 1.005589489760419e+00, 3.547352467438493e-01, 2.441529929120715e-03
150, 3.957487779587870e-01, -5.754285488135374e-02, 1.005827159399760e+00, 3.698253464155603e-01, 2.421176705534716e-03
151, 3.770797978812900e-01, -5.817904262446177e-02, 1.006077977387522e+00, 3.857502598596455e-01, 2.397816981504364e-03
152, 3.587469844042950e-01, -5.869148183384367e-02, 1.006342358526958e+00, 4.025363237274208e-01, 2.371143893233247e-03
153, 3.407920053178110e-01, -5.907774237985596e-02, 1.006620634007942e+00, 4.202045658970608e-01, 2.340907023197752e-03
154, 3.232528390902350e-01, -5.933656107664884e-02, 1.006913031818217e+00, 4.387694617461272e-01, 2.306478420078015e-03
155, 3.061635345664540e-01, -5.946784792894075e-02, 1.007219664469740e+00, 4.582381548737828e-01, 2.268105076760690e-03
156, 2.895540445181870e-01, -5.947265120547269e-02, 1.007540517669125e+00, 4.786097377656570e-01, 2.224920873267194e-03
157, 2.734501317315010e-01, -5.935311774455410e-02, 1.007875425899409e+00, 4.998737014333924e-01, 2.176769721499682e-03
158, 2.578733448481230e-01, -5.911241796041434e-02, 1.008224073852971e+00, 5.220100263934323e-01, 2.123880022895154e-03
159, 2.428410589052540e-01, -5.875464540499853e-02, 1.008585979143178e+00, 5.449880849965170e-01, 2.065268510428133e-03
160, 2.283665749856950e-01, -5.828472232042683e-02, 1.008960481043043e+00, 5.687659264233248e-01, 2.001332477710112e-03
161, 2.144592713403360e-01, -5.770827281676661e-02, 1.009346735049124e+00, 5.932899315361914e-01, 1.931482172130164e-03
162, 2.011247989315330e-01, -5.703150512358030e-02, 1.009743696558497e+00, 6.184937764988452e-01, 1.855816093413063e-03
163, 1.883653126994450e-01, -5.626108209808330e-02, 1.010150116625089e+00, 6.442981633379092e-01, 1.774258521189005e-03
164, 1.761797307773510e-01, -5.540399685008031e-02, 1.010564524301010e+00, 6.706096987604251e-01, 1.686734621366534e-03
165, 1.645640139002550e-01, -5.446745448005801e-02, 1.010985211610923e+00, 6.973199401477109e-01, 1.593232712200500e-03
268, 5.022241269281980e-02, 3.543266689313175e-02, 9.354488717611493e-01, -4.098626653331191e+00, 9.416431609364293e-03
269, 5.493000569713665e-02, 3.679903989336144e-02, 9.385396497609305e-01, -3.902387250565179e+00, 8.900026343036271e-03
270, 5.997667081468780e-02, 3.816999333895075e-02, 9.414667325120474e-01, -3.716541172015852e+00, 8.427383314611774e-03
271, 6.538009589379461e-02, 3.954236389553951e-02, 9.442397550046989e-01, -3.540476673739631e+00, 7.992896582087815e-03
272, 7.115831019507564e-02, 4.091264364582575e-02, 9.468680948476210e-01, -3.373598353433980e+00, 7.592226542841901e-03
273, 7.732958126964475e-02, 4.227696117640378e-02, 9.493608215050506e-01, -3.215330373479569e+00, 7.222403617089430e-03
274, 8.391230598775640e-02, 4.363106518191866e-02, 9.517266514983586e-01, -3.065119305274239e+00, 6.879760574403668e-03
275, 9.092487458748623e-02, 4.497031464222394e-02, 9.539739075249377e-01, -2.922436724852923e+00, 6.561420900699322e-03
276, 9.838551560707631e-02, 4.628967359536866e-02, 9.561104134466583e-01, -2.786785880271342e+00, 6.264825973588470e-03
277, 1.063121233669820e-01, 4.758371320865407e-02, 9.581435454807303e-01, -2.657698441400289e+00, 5.987419333207865e-03
278, 1.147220644607960e-01, 4.884662296736836e-02, 9.600802746198202e-01, -2.534731806591375e+00, 5.727304250819481e-03
279, 1.236319622128720e-01, 5.007222893977906e-02, 9.619270510652591e-01, -2.417476440233476e+00, 5.482332804262818e-03
280, 1.330574640426540e-01, 5.125402534032247e-02, 9.636898699451220e-01, -2.305551700186334e+00, 5.251081957242947e-03
281, 1.430129884353940e-01, 5.238521407904258e-02, 9.653743524852493e-01, -2.198600684077198e+00, 5.031763982200240e-03
282, 1.535114573822800e-01, 5.345875993159088e-02, 9.669856221667081e-01, -2.096298092300353e+00, 4.823351207397015e-03
283, 1.645640139061220e-01, 5.446745448056218e-02, 9.685284159315015e-01, -1.998343167354073e+00, 4.624347204161842e-03
284, 1.761797307835840e-01, 5.540399685055070e-02, 9.700070911733285e-01, -1.904459249983897e+00, 4.434033471414389e-03
285, 1.883653127060570e-01, 5.626108209851536e-02, 9.714255684456785e-01, -1.814397416755230e+00, 4.251304870915809e-03
286, 2.011247989385280e-01, 5.703150512396883e-02, 9.727874792321120e-01, -1.727927097835783e+00, 4.075366171020636e-03
287, 2.144592713477200e-01, 5.770827281710689e-02, 9.740960381552285e-01, -1.644844190692435e+00, 3.905650493510348e-03
288, 2.283665749934740e-01, 5.828472232071416e-02, 9.753541886255404e-01, -1.564961812565874e+00, 3.741610135254336e-03
289, 2.428410589134270e-01, 5.875464540522825e-02, 9.765645394517907e-01, -1.488114325202652e+00, 3.582443102180275e-03
290, 2.578733448566950e-01, 5.911241796058234e-02, 9.777294392617261e-01, -1.414152609738084e+00, 3.428323552830369e-03
291, 2.734501317404630e-01, 5.935311774465631e-02, 9.788509724914789e-01, -1.342944321338039e+00, 3.278093665018895e-03
292, 2.895540445275380e-01, 5.947265120550563e-02, 9.799310044778490e-01, -1.274371026203785e+00, 3.132453024833202e-03
293, 3.061635345761830e-01, 5.946784792890163e-02, 9.809711852473616e-01, -1.208327960997453e+00, 2.990595345101020e-03
294, 3.232528391003260e-01, 5.933656107653527e-02, 9.819730190058235e-01, -1.144719620817310e+00, 2.852273355344367e-03
295, 3.407920053282550e-01, 5.907774237966616e-02, 9.829378212874301e-01, -1.083462479882833e+00, 2.718026791001363e-03
296, 3.587469844150750e-01, 5.869148183357661e-02, 9.838668335324705e-01, -1.024477716777251e+00, 2.587185637100137e-03
297, 3.770797978923800e-01, 5.817904262411734e-02, 9.847611573996036e-01, -9.676953850866516e-01, 2.460049886450352e-03
298, 3.957487779701630e-01, 5.754285488093251e-02, 9.856218626134325e-01, -9.130475659513572e-01, 2.336500409769630e-03
299, 4.147088805383200e-01, 5.678648875328256e-02, 9.864499414408048e-01, -8.604712584526590e-01, 2.216487195915679e-03
300, 4.339120676248920e-01, 5.591460064593561e-02, 9.872463542277530e-01, -8.099054883853836e-01, 2.100040014610636e-03
301, 4.533077537415610e-01, 5.493285287848778e-02, 9.880120604247284e-01, -7.612893384065310e-01, 1.987068916412977e-03
302, 4.728433082514070e-01, 5.384781416001998e-02, 9.887479748089646e-01, -7.145647275610926e-01, 1.877516629327944e-03
303, 4.924646039331600e-01, 5.266684144098649e-02, 9.894550272708692e-01, -6.696726153297313e-01, 1.771285104762960e-03
304, 5.121166001190330e-01, 5.139794887207108e-02, 9.901341428981444e-01, -6.265542661260738e-01, 1.668261445431975e-03
305, 5.317439474426470e-01, 5.004966851322778e-02, 9.907862096398259e-01, -5.851533023686587e-01, 1.568299829403749e-03
306, 5.512916003488870e-01, 4.863090808512447e-02, 9.914121101443606e-01, -5.454136830205426e-01, 1.471257161446199e-03
307, 5.707054231615170e-01, 4.715080946768199e-02, 9.920126939129441e-01, -5.072814716271220e-01, 1.376980114193289e-03
308, 5.899327757047460e-01, 4.561861289327686e-02, 9.925887531865576e-01, -4.707063672942532e-01, 1.285325913144205e-03
309, 6.089230652227910e-01, 4.404353001739358e-02, 9.931410075931976e-01, -4.356426794649756e-01, 1.196166969966332e-03
310, 6.276282526025000e-01, 4.243462858755100e-02, 9.936701073682848e-01, -4.020491234495993e-01, 1.109402865049354e-03
311, 6.460033026034030e-01, 4.080073056669482e-02, 9.941766045227900e-01, -3.698906510165004e-01, 1.024973796699562e-03
312, 6.640065698429310e-01, 3.915032464629472e-02, 9.946609476765375e-01, -3.391387784355721e-01, 9.428630546102736e-04
313, 6.816001145696030e-01, 3.749149362131417e-02, 9.951234707134461e-01, -3.097723067786306e-01, 8.631007917207412e-04
314, 6.987499446466160e-01, 3.583185629553873e-02, 9.955644114890995e-01, -2.817761341400502e-01, 7.857668563754351e-04
315, 7.154261825609159e-01, 3.417852304486385e-02, 9.959839155588606e-01, -2.551410189316277e-01, 7.109868268595326e-04
316, 7.316031585352730e-01, 3.253806414333830e-02, 9.963820521801624e-01, -2.298625638665659e-01, 6.389312536509685e-04
317, 7.472594328802760e-01, 3.091648930519984e-02, 9.967588411137203e-01, -2.059395142992818e-01, 5.698021665960121e-04
318, 7.623777524775640e-01, 2.931923744778128e-02, 9.971142853213939e-01, -1.833716821756381e-01, 5.038291495948371e-04
319, 7.769449477145119e-01, 2.775117492175853e-02, 9.974484108193922e-01, -1.621574156768086e-01, 4.412511561617572e-04
320, 7.909517772258660e-01, 2.621660130727932e-02, 9.977613137813823e-01, -1.422906085528380e-01, 3.823045444821300e-04
321, 8.043927284893690e-01, 2.471926132428823e-02, 9.980531828450645e-01, -1.237592838355923e-01, 3.272018568149406e-04
322, 8.172657826251279e-01, 2.326236201256679e-02, 9.983242897818280e-01, -1.065461862401158e-01, 2.761112370076793e-04
323, 8.295721517613170e-01, 2.184859408937147e-02, 9.985750256231377e-01, -9.062648843129822e-02, 2.291517874252031e-04
324, 8.413159970197970e-01, 2.048015683472137e-02, 9.988059742255252e-01, -7.596312024200315e-02, 1.864295943224852e-04
325, 8.525041346969320e-01, 1.915878563801130e-02, 9.990179123645597e-01, -6.250676270664465e-02, 1.480586565091606e-04
326, 8.631457375029460e-01, 1.788578165212381e-02, 9.992117451731165e-01, -5.019994720894975e-02, 1.140929725845164e-04
327, 8.732520369444300e-01, 1.666204293701322e-02, 9.993884252166917e-01, -3.898219354488150e-02, 8.439716437127027e-05
328, 8.828360320518041e-01, 1.548809659688852e-02, 9.995488808765005e-01, -2.879455701662265e-02, 5.857324147278548e-05
329, 8.919122087722000e-01, 1.436413140608066e-02, 9.996941775981043e-01, -1.956939044904435e-02, 3.605581561173360e-05
330, 9.004962734861121e-01, 1.329003047512407e-02, 9.998254430729991e-01, -1.123509455364734e-02, 1.629496203579085e-05
331, 9.086049032329651e-01, 1.226540359114749e-02, 9.999438571999424e-01, -3.716755303126541e-03, 1.115388669828530e-06
332, 9.162555145056280e-01, 1.128961885949327e-02, 1.000050526961788e+00, 3.055911759767863e-03, 1.641810820110227e-05
333, 9.234660517745920e-01, 1.036183331201132e-02, 1.000146467055879e+00, 9.147331708702992e-03, 2.976232338196038e-05
334, 9.302547962804840e-01, 9.481022246828921e-03, 1.000232599914536e+00, 1.461607153495561e-02, 4.128393731725435e-05
335, 9.366401951722300e-01, 8.646007048666101e-03, 1.000309772759613e+00, 1.951592297320523e-02, 5.117509511984619e-05
336, 9.426407105856069e-01, 7.855481326660181e-03, 1.000378773023987e+00, 2.389688164202169e-02, 5.974553540945011e-05
337, 9.482746880079280e-01, 7.108035234522185e-03, 1.000440337100846e+00, 2.780570255230270e-02, 6.748222192660633e-05
338, 9.535602429188660e-01, 6.402177879722490e-03, 1.000495158452779e+00, 3.128641496936674e-02, 7.510315495520617e-05
339, 9.585151646361750e-01, 5.736357800811276e-03, 1.000543896627789e+00, 3.438089485645938e-02, 8.358744893202202e-05
340, 9.631568360209350e-01, 5.108981458273515e-03, 1.000587188950352e+00, 3.712960716280214e-02, 9.414187213986454e-05
341, 9.675021678037270e-01, 4.518429822029544e-03, 1.000625666117283e+00, 3.957259603459124e-02, 1.080324684348645e-04
342, 9.715675460830290e-01, 3.963073044616243e-03, 1.000659970946861e+00, 4.175067523308513e-02, 1.261739764215488e-04
343, 9.753687917215980e-01, 3.441283349835714e-03, 1.000690780201336e+00, 4.370681368694038e-02, 1.483540691743100e-04
344, 9.789211302805760e-01, 2.951446198236615e-03, 1.000718825141620e+00, 4.548744054931375e-02, 1.720005767490541e-04
345, 9.822391712283960e-01, 2.491969834783358e-03, 1.000744896946032e+00, 4.714278924378998e-02, 1.905081758793192e-04
346, 9.853368952912690e-01, 2.061293361548887e-03, 1.000769778705563e+00, 4.872257971415932e-02, 1.913485771354230e-04
347, 9.882276487598231e-01, 1.657893415821940e-03, 1.000794216581185e+00, 5.027418714677322e-02, 1.543621354470343e-04
348, 9.909241437994040e-01, 1.280289614408968e-03, 1.000818406782790e+00, 5.181006928259491e-02, 5.108453279548543e-05
349, 9.934384637945120e-01, 9.270488596823588e-04, 1.000844515346284e+00, 5.346775188143273e-02, 1.568658191121692e-04
350, 9.957820729231800e-01, 5.967886532421940e-04, 1.000864975586691e+00, 5.476681165156450e-02, 5.393801876460293e-04
351, 9.979658291431760e-01, 2.881794857138566e-04, 1.000877891097867e+00, 5.558684214221746e-02, 1.436947553043773e-03
166, 1.535114573767690e-01, -5.345875993105773e-02, 1.011410214584340e+00, 7.243041912595481e-01, 1.493840018120277e-03
167, 1.430129884302270e-01, -5.238521407848482e-02, 1.011837286300752e+00, 7.514197908182954e-01, 1.388863590414964e-03
168, 1.330574640378200e-01, -5.125402533974487e-02, 1.012263879552429e+00, 7.785050117364510e-01, 1.280385398648609e-03
169, 1.236319622083540e-01, -5.007222893918521e-02, 1.012687129966098e+00, 8.053779894801464e-01, 1.172545550188860e-03
170, 1.147220644565820e-01, -4.884662296676224e-02, 1.013103837401148e+00, 8.318355410054165e-01, 1.071043269158232e-03
171, 1.063121233630630e-01, -4.758371320803999e-02, 1.013510413321212e+00, 8.576498232793729e-01, 9.799394443106319e-04
172, 9.838551560343448e-02, -4.628967359474944e-02, 1.013902790934919e+00, 8.825626279447375e-01, 8.997460586350062e-04
173, 9.092487458410546e-02, -4.497031464160225e-02, 1.014276319209755e+00, 9.062786520574846e-01, 8.273132844696590e-04
174, 8.391230598462590e-02, -4.363106518129783e-02, 1.014625671430935e+00, 9.284596923147218e-01, 7.577344851434777e-04
175, 7.732958126675092e-02, -4.227696117578635e-02, 1.014944761115534e+00, 9.487193062821534e-01, 6.856640766139847e-04
176, 7.115831019240228e-02, -4.091264364521334e-02, 1.015226654376976e+00, 9.666172482479385e-01, 6.060030425936341e-04
177, 6.538009589133059e-02, -3.954236389493454e-02, 1.015463469773488e+00, 9.816531104096983e-01, 5.139701868500632e-04
