"Global_Index", "x_coord", "y_coord", "Pressure", "Pressure_Coefficient", "Skin_Friction_Coefficient"
384, 1.000000000000000e+00, 5.352202629500000e-08, 1.001663410389399e+00, 1.054609633642051e-01, 9.134383553457807e-05
385, 9.995049412302290e-01, -7.016296218106801e-05, 1.001931573555912e+00, 1.224871553599109e-01, 4.858805241531806e-03
386, 9.990009933457160e-01, -1.415916575292282e-04, 1.001879739458438e+00, 1.191961094381754e-01, 3.981360397605761e-03
387, 9.984880071145220e-01, -2.142594339654382e-04, 1.001833219346639e+00, 1.162424586238235e-01, 3.271661790615075e-03
388, 9.979658291430820e-01, -2.881794857271442e-04, 1.001808248260261e+00, 1.146569966211449e-01, 2.870153734466627e-03
389, 9.974343048627150e-01, -3.633726561478837e-04, 1.001798016388824e+00, 1.140073555469738e-01, 2.682484924755027e-03
390, 9.968932772885490e-01, -4.398586638588618e-04, 1.001797703002066e+00, 1.139874580226679e-01, 2.617217525555236e-03
391, 9.963425871536200e-01, -5.176573197351603e-04, 1.001802222607829e+00, 1.142744164311379e-01, 2.609220318369091e-03
392, 9.957820729228830e-01, -5.967886532841323e-04, 1.001807922765225e+00, 1.146363303192142e-01, 2.620382570703080e-03
393, 9.952115707715050e-01, -6.772729105494046e-04, 1.001813169854698e+00, 1.149694780588905e-01, 2.632815328329494e-03
394, 9.946309145593470e-01, -7.591305470417242e-04, 1.001817505697353e+00, 1.152447689963657e-01, 2.640757862189866e-03
395, 9.940399358363250e-01, -8.423822379350335e-04, 1.001821180216706e+00, 1.154780712533827e-01, 2.644160992765751e-03
396, 9.934384637941019e-01, -9.270488597400344e-04, 1.001824514981357e+00, 1.156898018349700e-01, 2.644673684225708e-03
397, 9.928263252886970e-01, -1.013151509336341e-03, 1.001827782625687e+00, 1.158972708190674e-01, 2.643869820547623e-03
398, 9.922033447911550e-01, -1.100711481734587e-03, 1.001831097845797e+00, 1.161077604803981e-01, 2.642701619517789e-03
399, 9.915693443936120e-01, -1.189750279688650e-03, 1.001834497628664e+00, 1.163236191927868e-01, 2.641592205049963e-03
400, 9.909241437988340e-01, -1.280289614488857e-03, 1.001837961628709e+00, 1.165435551765637e-01, 2.640650371973376e-03
401, 9.902675602858260e-01, -1.372351390290136e-03, 1.001841466720457e+00, 1.167661001511143e-01, 2.639845640977957e-03
402, 9.895994087262190e-01, -1.465957716968706e-03, 1.001844990132948e+00, 1.169898083446504e-01, 2.639124877412227e-03
403, 9.889195015550920e-01, -1.561130895382252e-03, 1.001848522014505e+00, 1.172140542553533e-01, 2.638445599677950e-03
404, 9.882276487590520e-01, -1.657893415929766e-03, 1.001852057190179e+00, 1.174385093158535e-01, 2.637783669707444e-03
405, 9.875236578853650e-01, -1.756267964583540e-03, 1.001855596009247e+00, 1.176631957024468e-01, 2.637135445713347e-03
406, 9.868073340184690e-01, -1.856277410554656e-03, 1.001859139178076e+00, 1.178881582636234e-01, 2.636502654818804e-03
407, 9.860784797714760e-01, -1.957944801003816e-03, 1.001862688454597e+00, 1.181135086138330e-01, 2.635887629208456e-03
408, 9.853368952903420e-01, -2.061293361678059e-03, 1.001866244950982e+00, 1.183393173670244e-01, 2.635292588055064e-03
409, 9.845823782497600e-01, -2.166346496331530e-03, 1.001869810071511e+00, 1.185656736836485e-01, 2.634721674151033e-03
410, 9.838147238361660e-01, -2.273127772284692e-03, 1.001873385043496e+00, 1.187926554879792e-01, 2.634174124982343e-03
411, 9.830337247539950e-01, -2.381660921028200e-03, 1.001876971379513e+00, 1.190203588164465e-01, 2.633649432080771e-03
412, 9.822391712272380e-01, -2.491969834944034e-03, 1.001880570643145e+00, 1.192488829438979e-01, 2.633147966513037e-03
413, 9.814308509989190e-01, -2.604078558128462e-03, 1.001884184622407e+00, 1.194783413947997e-01, 2.632669196881505e-03
414, 9.806085493252490e-01, -2.718011281798061e-03, 1.001887815177307e+00, 1.197088522646523e-01, 2.632212238553578e-03
415, 9.797720489840330e-01, -2.833792339193476e-03, 1.001891464287226e+00, 1.199405412281735e-01, 2.631776699861163e-03
416, 9.789211302792580e-01, -2.951446198418808e-03, 1.001895133989842e+00, 1.201735376613232e-01, 2.631362364657286e-03
417, 9.780555710472130e-01, -3.070997453806953e-03, 1.001898826383836e+00, 1.204079748134543e-01, 2.630967401681932e-03
418, 9.771751466664890e-01, -3.192470825092900e-03, 1.001902543598618e+00, 1.206439878848908e-01, 2.630592246223967e-03
419, 9.762796300624300e-01, -3.315891145153454e-03, 1.001906287823020e+00, 1.208817158486757e-01, 2.630236617590813e-03
420, 9.753687917200690e-01, -3.441283350046040e-03, 1.001910061279675e+00, 1.211212998241229e-01, 2.629898869501895e-03
421, 9.744423996983940e-01, -3.568672476037155e-03, 1.001913866222606e+00, 1.213628829234165e-01, 2.629578578458025e-03
422, 9.735002196451090e-01, -3.698083649881599e-03, 1.001917704932737e+00, 1.216066099667321e-01, 2.629275151251474e-03
423, 9.725420148134880e-01, -3.829542079622556e-03, 1.001921579719113e+00, 1.218526275598459e-01, 2.628988013577043e-03
424, 9.715675460812661e-01, -3.963073044857662e-03, 1.001925492921285e+00, 1.221010842452096e-01, 2.628716707206334e-03
425, 9.705765719715460e-01, -4.098701885873286e-03, 1.001929446896157e+00, 1.223521296672621e-01, 2.628459557414697e-03
426, 9.695688486768370e-01, -4.236453999195831e-03, 1.001933444016202e+00, 1.226059144588133e-01, 2.628216752794928e-03
427, 9.685441300839570e-01, -4.376354822482616e-03, 1.001937486685630e+00, 1.228625912677758e-01, 2.627987866077401e-03
428, 9.675021678017420e-01, -4.518429822299970e-03, 1.001941577318305e+00, 1.231223133549464e-01, 2.627770943730776e-03
429, 9.664427111923670e-01, -4.662704490220225e-03, 1.001945718343787e+00, 1.233852349777401e-01, 2.627566445819745e-03
430, 9.653655074033110e-01, -4.809204324888168e-03, 1.001949912217204e+00, 1.236515120169185e-01, 2.627373653104176e-03
431, 9.642703014028230e-01, -4.957954820327037e-03, 1.001954161404310e+00, 1.239213010279752e-01, 2.627191033770410e-03
432, 9.631568360186920e-01, -5.108981458577545e-03, 1.001958468381360e+00, 1.241947592330579e-01, 2.627018518576604e-03
433, 9.620248519786240e-01, -5.262309693508789e-03, 1.001962835647255e+00, 1.244720452921021e-01, 2.626855825709529e-03
434, 9.608740879536010e-01, -5.417964935352300e-03, 1.001967265715314e+00, 1.247533187805983e-01, 2.626701581210176e-03
435, 9.597042806050320e-01, -5.575972541268674e-03, 1.001971761105669e+00, 1.250387397064520e-01, 2.626555189938011e-03
436, 9.585151646336830e-01, -5.736357801147233e-03, 1.001976324368427e+00, 1.253284699809867e-01, 2.626417190172188e-03
437, 9.573064728290710e-01, -5.899145916240287e-03, 1.001980958059706e+00, 1.256226718968777e-01, 2.626285103419877e-03
438, 9.560779361314430e-01, -6.064361994812915e-03, 1.001985664750336e+00, 1.259215086810917e-01, 2.626159638862899e-03
439, 9.548292836881760e-01, -6.232031028764550e-03, 1.001990447028313e+00, 1.262251446505142e-01, 2.626039795469191e-03
440, 9.535602429161220e-01, -6.402177880090121e-03, 1.001995307493713e+00, 1.265337448888088e-01, 2.625924832295678e-03
441, 9.522705395643070e-01, -6.574827265672771e-03, 1.002000248763331e+00, 1.268474755413343e-01, 2.625814485091214e-03
442, 9.509598977819530e-01, -6.750003738418787e-03, 1.002005273475650e+00, 1.271665041304327e-01, 2.625708092595230e-03
443, 9.496280402005330e-01, -6.927731669009994e-03, 1.002010384267691e+00, 1.274909980856387e-01, 2.625604138719947e-03
444, 9.482746880048850e-01, -7.108035234927211e-03, 1.002015583813837e+00, 1.278211272086084e-01, 2.625504171561851e-03
445, 9.468995610021700e-01, -7.290938389614655e-03, 1.002020874784530e+00, 1.281570610508284e-01, 2.625404987175865e-03
446, 9.455023777253990e-01, -7.476464858421941e-03, 1.002026259875318e+00, 1.284989707577655e-01, 2.625308145804949e-03
447, 9.440828555112990e-01, -7.664638106557418e-03, 1.002031741797805e+00, 1.288470284943158e-01, 2.625212106487444e-03
448, 9.426407105822270e-01, -7.855481327107042e-03, 1.002037323264668e+00, 1.292014064935955e-01, 2.625115878447130e-03
449, 9.411756581662239e-01, -8.049017420561085e-03, 1.002043007023746e+00, 1.295622792211026e-01, 2.625020569456256e-03
450, 9.396874125684220e-01, -8.245268966510694e-03, 1.002048795815315e+00, 1.299298206622549e-01, 2.624923412888356e-03
451, 9.381756873003110e-01, -8.444258214356458e-03, 1.002054692415177e+00, 1.303042070579444e-01, 2.624826047942667e-03
452, 9.366401951685740e-01, -8.646007049145999e-03, 1.002060699591553e+00, 1.306856141678547e-01, 2.624725912341191e-03
453, 9.350806484025380e-01, -8.850536981634911e-03, 1.002066820146100e+00, 1.310742198745660e-01, 2.624624430057592e-03
454, 9.334967587575570e-01, -9.057869113770373e-03, 1.002073056878672e+00, 1.314702019461823e-01, 2.624519369164571e-03
455, 9.318882376527650e-01, -9.268024125515325e-03, 1.002079412605609e+00, 1.318737391974179e-01, 2.624411150504115e-03
456, 9.302547962764830e-01, -9.481022247350132e-03, 1.002085890158744e+00, 1.322850114268463e-01, 2.624299295082773e-03
457, 9.285961457416150e-01, -9.696883232737988e-03, 1.002092492377439e+00, 1.327041989109368e-01, 2.624182793303989e-03
458, 9.269119971968330e-01, -9.915626340390895e-03, 1.002099222111446e+00, 1.331314825858758e-01, 2.624061397338313e-03
459, 9.252020619810900e-01, -1.013727030570102e-02, 1.002106082228123e+00, 1.335670445057961e-01, 2.623934966205333e-03
460, 9.234660517702999e-01, -1.036183331256595e-02, 1.002113075597671e+00, 1.340110669052147e-01, 2.623802247972680e-03
461, 9.217036787142580e-01, -1.058933297485582e-02, 1.002120205097611e+00, 1.344637324833624e-01, 2.623663112894543e-03
462, 9.199146555999830e-01, -1.081978630643636e-02, 1.002127473620725e+00, 1.349252249085688e-01, 2.623517483039080e-03
463, 9.180986960143600e-01, -1.105320969105911e-02, 1.002134884063514e+00, 1.353957280852069e-01, 2.623364377367616e-03
464, 9.162555145009680e-01, -1.128961886009035e-02, 1.002142439329058e+00, 1.358754263353465e-01, 2.623203372938561e-03
465, 9.143848267310140e-01, -1.152902886463811e-02, 1.002150142332790e+00, 1.363645047654440e-01, 2.623034314820752e-03
466, 9.124863496792260e-01, -1.177145404520004e-02, 1.002157995982252e+00, 1.368631479808548e-01, 2.622856051828218e-03
467, 9.105598018035230e-01, -1.201690800876632e-02, 1.002166003206831e+00, 1.373715419739983e-01, 2.622669241452835e-03
468, 9.086049032279730e-01, -1.226540359178139e-02, 1.002174166922442e+00, 1.378898718818669e-01, 2.622472326757083e-03
469, 9.066213759329600e-01, -1.251695283981058e-02, 1.002182490065068e+00, 1.384183241156058e-01, 2.622265735670543e-03
470, 9.046089439484650e-01, -1.277156697172146e-02, 1.002190975560531e+00, 1.389570844413041e-01, 2.622048360210359e-03
471, 9.025673335535830e-01, -1.302925635554209e-02, 1.002199626340471e+00, 1.395063389943491e-01, 2.621820141668301e-03
472, 9.004962734807360e-01, -1.329003047580013e-02, 1.002208445340254e+00, 1.400662741467639e-01, 2.621580799156206e-03
473, 8.983954951245769e-01, -1.355389790231970e-02, 1.002217435480965e+00, 1.406370753638420e-01, 2.621329216915931e-03
474, 8.962647327563030e-01, -1.382086626549480e-02, 1.002226599700216e+00, 1.412189291601233e-01, 2.621065976817096e-03
475, 8.941037237419130e-01, -1.409094221770783e-02, 1.002235940923347e+00, 1.418120212710621e-01, 2.620790137739431e-03
476, 8.919122087664410e-01, -1.436413140679768e-02, 1.002245462067944e+00, 1.424165369397810e-01, 2.620500986953203e-03
477, 8.896899320628170e-01, -1.464043844769909e-02, 1.002255166063093e+00, 1.430326621394836e-01, 2.620199046435643e-03
478, 8.874366416441960e-01, -1.491986688391289e-02, 1.002265055827811e+00, 1.436605822042812e-01, 2.619883471780731e-03
479, 8.851520895422360e-01, -1.520241915997796e-02, 1.002275134254883e+00, 1.443004808024471e-01, 2.619553039667734e-03
480, 8.828360320456839e-01, -1.548809659764239e-02, 1.002285404259600e+00, 1.449525430315558e-01, 2.619209102574453e-03
481, 8.804882299500990e-01, -1.577689934986276e-02, 1.002295867445181e+00, 1.456168706828980e-01, 2.618850656407571e-03
482, 8.781084488119389e-01, -1.606882637554761e-02, 1.002306521702943e+00, 1.462933298722439e-01, 2.618476480941405e-03
483, 8.756964591969160e-01, -1.636387541106445e-02, 1.002317376435943e+00, 1.469825176175702e-01, 2.618086831088885e-03
484, 8.732520369379220e-01, -1.666204293780597e-02, 1.002328434702338e+00, 1.476846280871987e-01, 2.617683083515837e-03
485, 8.707749634088910e-01, -1.696332413356846e-02, 1.002339698257873e+00, 1.483997727567418e-01, 2.617260579038355e-03
486, 8.682650257749110e-01, -1.726771287742553e-02, 1.002351170148852e+00, 1.491281450418128e-01, 2.616824748392336e-03
487, 8.657220172780220e-01, -1.757520167239509e-02, 1.002362853296098e+00, 1.498699303910557e-01, 2.616369945344104e-03
488, 8.631457374960591e-01, -1.788578165295289e-02, 1.002374750492595e+00, 1.506253061363671e-01, 2.615900616274709e-03
489, 8.605359926317940e-01, -1.819944251863085e-02, 1.002386864468585e+00, 1.513944456260180e-01, 2.615411634432827e-03
490, 8.578925957790550e-01, -1.851617254213506e-02, 1.002399198081729e+00, 1.521775302983812e-01, 2.614907834256131e-03
491, 8.552153672192170e-01, -1.883595849086415e-02, 1.002411754049716e+00, 1.529747327047374e-01, 2.614384789614985e-03
492, 8.525041346896460e-01, -1.915878563887750e-02, 1.002424535143233e+00, 1.537862287612869e-01, 2.613844185830791e-03
493, 8.497587336814120e-01, -1.948463770878607e-02, 1.002437544120923e+00, 1.546121936194958e-01, 2.613287089170872e-03
494, 8.469790077255021e-01, -1.981349683969546e-02, 1.002450783675200e+00, 1.554527982260206e-01, 2.612709695979798e-03
495, 8.441648086773000e-01, -2.014534357954036e-02, 1.002464256530170e+00, 1.563082155394060e-01, 2.612114687615726e-03
496, 8.413159970120960e-01, -2.048015683562499e-02, 1.002477965384535e+00, 1.571786169054381e-01, 2.611501641429531e-03
497, 8.384324421177251e-01, -2.081791384163415e-02, 1.002491912909945e+00, 1.580641719523672e-01, 2.610869415053987e-03
498, 8.355140225863250e-01, -2.115859013629627e-02, 1.002506101779365e+00, 1.589650503916924e-01, 2.610218640056579e-03
499, 8.325606265054390e-01, -2.150215953304544e-02, 1.002520534644032e+00, 1.598814205557162e-01, 2.609548060043555e-03
500, 8.295721517532200e-01, -2.184859409030840e-02, 1.002535214148534e+00, 1.608134503541807e-01, 2.608859175863205e-03
501, 8.265485062907210e-01, -2.219786408075041e-02, 1.002550142908403e+00, 1.617613058523534e-01, 2.608150124829661e-03
502, 8.234896084539240e-01, -2.254993796502777e-02, 1.002565323550815e+00, 1.627251538546622e-01, 2.607422527632909e-03
503, 8.203953872438520e-01, -2.290478235891153e-02, 1.002580758661513e+00, 1.637051585347849e-01, 2.606674744162579e-03
504, 8.172657826166300e-01, -2.326236201353585e-02, 1.002596450842069e+00, 1.647014850715186e-01, 2.605907622926185e-03
505, 8.141007457699770e-01, -2.362263978186989e-02, 1.002612402675423e+00, 1.657142974607226e-01, 2.605121131859926e-03
506, 8.109002394283870e-01, -2.398557659484225e-02, 1.002628616736219e+00, 1.667437591713844e-01, 2.604314320217566e-03
507, 8.076642381254260e-01, -2.435113143742550e-02, 1.002645095594535e+00, 1.677900333827343e-01, 2.603488300908802e-03
508, 8.043927284804649e-01, -2.471926132528821e-02, 1.002661841786755e+00, 1.688532811346259e-01, 2.602640817061304e-03
509, 8.010857094757819e-01, -2.508992128440607e-02, 1.002678857905938e+00, 1.699336670653660e-01, 2.601775541825621e-03
510, 7.977431927271550e-01, -2.546306430877410e-02, 1.002696146506107e+00, 1.710313533346713e-01, 2.600889901119440e-03
511, 7.943652027498990e-01, -2.583864134642411e-02, 1.002713710090431e+00, 1.721464988735265e-01, 2.599982515288763e-03
512, 7.909517772165610e-01, -2.621660130830753e-02, 1.002731551265745e+00, 1.732792691949792e-01, 2.599056281932854e-03
513, 7.875029672157841e-01, -2.659689100542906e-02, 1.002749672630146e+00, 1.744298292570514e-01, 2.598111616243208e-03
514, 7.840188375019090e-01, -2.697945512970244e-02, 1.002768076614112e+00, 1.755983333755098e-01, 2.597142982239234e-03
515, 7.804994667308950e-01, -2.736423629476814e-02, 1.002786765985815e+00, 1.767849573068945e-01, 2.596158850724878e-03
516, 7.769449477048480e-01, -2.775117492280826e-02, 1.002805743123662e+00, 1.779898520607289e-01, 2.595150272630174e-03
517, 7.733553875897700e-01, -2.814020933338937e-02, 1.002825010856204e+00, 1.792131972272177e-01, 2.594125864298654e-03
518, 7.697309081434870e-01, -2.853127562179953e-02, 1.002844571568569e+00, 1.804551442426885e-01, 2.593076940360341e-03
519, 7.660716459177360e-01, -2.892430775705921e-02, 1.002864428149059e+00, 1.817158764908457e-01, 2.592012579108342e-03
520, 7.623777524675190e-01, -2.931923744885270e-02, 1.002884583059411e+00, 1.829955502721917e-01, 2.590924616444852e-03
521, 7.586493945352411e-01, -2.971599425086121e-02, 1.002905039084002e+00, 1.842943423720847e-01, 2.589816888819021e-03
522, 7.548867542360230e-01, -3.011450548229472e-02, 1.002925799007288e+00, 1.856124295810286e-01, 2.588692255982491e-03
523, 7.510900292284139e-01, -3.051469621129671e-02, 1.002946865471001e+00, 1.869499796275494e-01, 2.587543784216423e-03
524, 7.472594328699030e-01, -3.091648930628510e-02, 1.002968241340626e+00, 1.883071744468627e-01, 2.586376316589648e-03
525, 7.433951943669080e-01, -3.131980539589064e-02, 1.002989929467261e+00, 1.896841950605187e-01, 2.585189139809046e-03
526, 7.394975589091980e-01, -3.172456285259752e-02, 1.003011932727748e+00, 1.910812241247351e-01, 2.583982683257148e-03
527, 7.355667877921130e-01, -3.213067780247987e-02, 1.003034254024738e+00, 1.924984459344992e-01, 2.582754261194857e-03
528, 7.316031585245610e-01, -3.253806414443636e-02, 1.003056896401074e+00, 1.939360536855514e-01, 2.581506553861649e-03
529, 7.276069649245440e-01, -3.294663353315711e-02, 1.003079862869945e+00, 1.953942386911635e-01, 2.580237994753510e-03
530, 7.235785172006580e-01, -3.335629538946504e-02, 1.003103156540535e+00, 1.968731983592590e-01, 2.578949609851968e-03
531, 7.195181420179750e-01, -3.376695690297184e-02, 1.003126780591952e+00, 1.983731345375996e-01, 2.577640161896967e-03
532, 7.154261825498690e-01, -3.417852304597178e-02, 1.003150738305076e+00, 1.998942555353871e-01, 2.576310520032675e-03
533, 7.113029985134820e-01, -3.459089657982990e-02, 1.003175032992940e+00, 2.014367717035858e-01, 2.574959805893643e-03
534, 7.071489661900900e-01, -3.500397807030536e-02, 1.003199668099803e+00, 2.030009017245916e-01, 2.573588521570153e-03
535, 7.029644784289800e-01, -3.541766590149908e-02, 1.003224647126486e+00, 2.045868678723742e-01, 2.572195848275071e-03
536, 6.987499446352849e-01, -3.583185629664898e-02, 1.003249973638737e+00, 2.061948965430278e-01, 2.570782438739324e-03
537, 6.945057907403750e-01, -3.624644333473110e-02, 1.003275651297222e+00, 2.078252201592756e-01, 2.569346619555355e-03
538, 6.902324591553850e-01, -3.666131898713342e-02, 1.003301683839697e+00, 2.094780760383261e-01, 2.567888422874827e-03
539, 6.859304087072911e-01, -3.707637314606931e-02, 1.003328075170382e+00, 2.111537120666157e-01, 2.566409209364840e-03
540, 6.816001145580280e-01, -3.749149362242028e-02, 1.003354829341580e+00, 2.128523855325607e-01, 2.564908652813900e-03
541, 6.772420681046770e-01, -3.790656618543453e-02, 1.003381950434169e+00, 2.145743555389670e-01, 2.563384152399226e-03
542, 6.728567768624369e-01, -3.832147462183642e-02, 1.003409442579563e+00, 2.163198843971136e-01, 2.561833571660398e-03
543, 6.684447643289529e-01, -3.873610081126395e-02, 1.003437310288479e+00, 2.180892585011939e-01, 2.560263917317085e-03
544, 6.640065698311099e-01, -3.915032464739417e-02, 1.003465557900197e+00, 2.198827533601944e-01, 2.558669384107660e-03
545, 6.595427483526000e-01, -3.956402416723700e-02, 1.003494189733849e+00, 2.217006432042408e-01, 2.557044912870217e-03
546, 6.550538703431200e-01, -3.997707566021776e-02, 1.003523211058238e+00, 2.235432625596606e-01, 2.555403953767553e-03
547, 6.505405215101190e-01, -4.038935352389547e-02, 1.003552626163086e+00, 2.254108837890407e-01, 2.553727920424706e-03
548, 6.460033025913720e-01, -4.080073056778152e-02, 1.003582440604634e+00, 2.273038596687153e-01, 2.552032621030591e-03
