"Global_Index", "x_coord", "y_coord", "Pressure", "Pressure_Coefficient", "Skin_Friction_Coefficient"
143, 2.011247989385280e-01, 5.703150512396883e-02, 9.796107848931712e-01, -1.294702379686822e+00, 4.501565126497368e-03
144, 2.283665749934740e-01, 5.828472232071416e-02, 9.812740697867318e-01, -1.189097242674339e+00, 4.200856544682713e-03
145, 2.578733448566950e-01, 5.911241796058234e-02, 9.828519312438782e-01, -1.088915802913920e+00, 3.922045989991332e-03
146, 2.895540445275380e-01, 5.947265120550563e-02, 9.843411615782173e-01, -9.943617225456679e-01, 3.653257093717869e-03
147, 3.232528391003260e-01, 5.933656107653527e-02, 9.857715947992511e-01, -9.035407832830548e-01, 3.393074459056239e-03
148, 3.587469844150750e-01, 5.869148183357661e-02, 9.870913849265034e-01, -8.197447855223627e-01, 3.162179302597889e-03
149, 3.957487779701630e-01, 5.754285488093251e-02, 9.883404539259273e-01, -7.404390073403522e-01, 2.947346377022285e-03
150, 4.339120676248920e-01, 5.591460064593561e-02, 9.895119422250941e-01, -6.660589761015705e-01, 2.743971273429205e-03
151, 4.728433082514070e-01, 5.384781416001998e-02, 9.906099746307496e-01, -5.963427999417737e-01, 2.551198591784137e-03
152, 5.121166001190330e-01, 5.139794887207108e-02, 9.916346075106809e-01, -5.312868999624272e-01, 2.368742203802274e-03
153, 5.512916003488870e-01, 4.863090808512447e-02, 9.925932706354751e-01, -4.704195458280535e-01, 2.195491718267318e-03
154, 5.899327757047460e-01, 4.561861289327686e-02, 9.934906524063613e-01, -4.134430619834443e-01, 2.031543637826200e-03
155, 6.276282526025000e-01, 4.243462858755100e-02, 9.943171711476501e-01, -3.609658073320543e-01, 1.876163539411558e-03
156, 6.640065698429310e-01, 3.915032464629472e-02, 9.950820643996922e-01, -3.124012727808441e-01, 1.726560567606071e-03
157, 6.987499446466160e-01, 3.583185629553873e-02, 9.958179810597491e-01, -2.656765174391960e-01, 1.584564535475370e-03
158, 7.316031585352730e-01, 3.253806414333830e-02, 9.964939289799051e-01, -2.227592920151328e-01, 1.450932366497472e-03
159, 7.623777524775640e-01, 2.931923744778128e-02, 9.971239529194971e-01, -1.827578678939000e-01, 1.323806224595347e-03
160, 7.909517772258660e-01, 2.621660130727932e-02, 9.977101748035935e-01, -1.455375199971604e-01, 1.202214350985765e-03
161, 8.172657826251279e-01, 2.326236201256679e-02, 9.982563043219608e-01, -1.108627130311228e-01, 1.085949037568076e-03
162, 8.413159970197970e-01, 2.048015683472137e-02, 9.987549131393016e-01, -7.920508620196604e-02, 9.738896203181735e-04
163, 8.631457375029460e-01, 1.788578165212381e-02, 9.992159167954687e-01, -4.993508293237491e-02, 8.644909805024658e-04
164, 8.828360320518041e-01, 1.548809659688852e-02, 9.996343664237479e-01, -2.336691622904584e-02, 7.588228792994411e-04
165, 9.004962734861121e-01, 1.329003047512407e-02, 1.000005415612193e+00, 1.917059503722424e-04, 6.540141415636660e-04
166, 9.162555145056280e-01, 1.128961885949327e-02, 1.000328759428238e+00, 2.072142285440435e-02, 5.476467407396928e-04
167, 9.302547962804840e-01, 9.481022246828921e-03, 1.000613561464407e+00, 3.880404848728577e-02, 4.397701571712859e-04
168, 9.426407105856069e-01, 7.855481326660181e-03, 1.000873365031300e+00, 5.529947352497359e-02, 3.336453496475247e-04
169, 9.535602429188660e-01, 6.402177879722490e-03, 1.001114907491649e+00, 7.063546600483596e-02, 2.410811938054773e-04
170, 9.631568360209350e-01, 5.108981458273515e-03, 1.001336718452267e+00, 8.471866785292395e-02, 1.835080413971111e-04
171, 9.715675460830290e-01, 3.963073044616243e-03, 1.001532101161388e+00, 9.712388949984456e-02, 1.896765668997416e-04
172, 9.789211302805760e-01, 2.951446198236615e-03, 1.001696923269703e+00, 1.075887601895619e-01, 2.836781437340299e-04
173, 9.853368952912690e-01, 2.061293361548887e-03, 1.001831731545813e+00, 1.161479953056379e-01, 4.996937451738938e-04
174, 9.909241437994040e-01, 1.280289614408968e-03, 1.001945845136554e+00, 1.233932852928876e-01, 8.920988787154931e-04
175, 9.957820729231800e-01, 5.967886532421940e-04, 1.002024739698079e+00, 1.284024517992573e-01, 1.353947506478037e-03
94, 2.280943840223927e-02, -2.495170224279449e-02, 1.015835593554481e+00, 1.005279960523859e+00, 1.142259138602488e-03
95, 1.826885694347390e-02, -2.251990184115951e-02, 1.015641725103956e+00, 9.929708820494677e-01, 1.672695092187991e-03
96, 1.445220176924677e-02, -2.018402699144572e-02, 1.014890395608640e+00, 9.452675363379126e-01, 2.520562176944817e-03
97, 1.127516040522520e-02, -1.795262732939143e-02, 1.013408211684345e+00, 8.511608460114992e-01, 3.764147573677851e-03
98, 8.660977828664375e-03, -1.583432528077909e-02, 1.011035487851019e+00, 7.005120747269068e-01, 5.345789104349941e-03
99, 6.539262456987240e-03, -1.383809857154541e-02, 1.007599179325865e+00, 4.823342784750465e-01, 7.277618047015820e-03
100, 4.844550253733529e-03, -1.197282395717829e-02, 1.003088727426120e+00, 1.959570663059661e-01, 9.523898139601234e-03
101, 3.515319859016383e-03, -1.024671366603845e-02, 9.975592878942120e-01, -1.551176182715516e-01, 1.197952521538904e-02
102, 2.493434235242850e-03, -8.666019672232862e-03, 9.913586264160231e-01, -5.488094671588365e-01, 1.449589151743956e-02
103, 1.724623063799526e-03, -7.234076671312168e-03, 9.848980838255968e-01, -9.590016645859535e-01, 1.707532876381487e-02
104, 1.159193085740397e-03, -5.950300022223502e-03, 9.782701107649265e-01, -1.379824342587168e+00, 1.964266109496524e-02
105, 7.531893324873004e-04, -4.810177416320721e-03, 9.718975706115198e-01, -1.784429097084416e+00, 2.239064561737300e-02
106, 4.691284473891598e-04, -3.805771251873249e-03, 9.662398619714461e-01, -2.143647832506623e+00, 2.353739509526835e-02
107, 2.762360161117116e-04, -2.926719015761365e-03, 9.612297834405228e-01, -2.461747294450770e+00, 2.448079243017169e-02
108, 1.500786146402364e-04, -2.161299885350869e-03, 9.568043032533202e-01, -2.742729490179785e+00, 2.672110361147571e-02
109, 7.180327325045228e-05, -1.497376923399532e-03, 9.526129506890038e-01, -3.008846475631824e+00, 2.993993908749043e-02
110, 2.721275945542452e-05, -9.231024271926752e-04, 9.488179522471991e-01, -3.249798180273960e+00, 2.860112341433394e-02
111, 5.818606343871792e-06, -4.273592490875973e-04, 9.455638386107955e-01, -3.456408074800770e+00, 2.716062416849688e-02
112, 0.000000000000000e+00, 0.000000000000000e+00, 9.439450435188376e-01, -3.559188469273899e+00, 2.612481682797451e-02
113, 5.818606344095651e-06, 4.273592490958099e-04, 9.425259653939985e-01, -3.649288451775538e+00, 2.736939333541139e-02
114, 2.721275945665566e-05, 9.231024272135111e-04, 9.394630230368791e-01, -3.843760516385282e+00, 2.907445772548994e-02
115, 7.180327325368544e-05, 1.497376923433127e-03, 9.360887443912899e-01, -4.057999917022733e+00, 3.152628145664832e-02
116, 1.500786146456709e-04, 2.161299885389794e-03, 9.326262207026200e-01, -4.277842164112573e+00, 3.210741482905290e-02
117, 2.762360161229505e-04, 2.926719015820480e-03, 9.291262701824775e-01, -4.500060712268404e+00, 3.201980801358886e-02
118, 4.691284474090552e-04, 3.805771251953191e-03, 9.255753819905045e-01, -4.725513390568496e+00, 3.287553045472088e-02
119, 7.531893325176259e-04, 4.810177416416397e-03, 9.222793908621477e-01, -4.934782167101976e+00, 3.363411605407795e-02
120, 1.159193085789885e-03, 5.950300022348630e-03, 9.193882331339444e-01, -5.118347297281217e+00, 3.243793177061192e-02
121, 1.724623063873454e-03, 7.234076671464374e-03, 9.171934109430001e-01, -5.257700753258638e+00, 3.103999547146041e-02
122, 2.493434235350970e-03, 8.666019672416576e-03, 9.160887111389520e-01, -5.327840255286116e+00, 2.961778192176481e-02
123, 3.515319859166580e-03, 1.024671366625151e-02, 9.161199120200304e-01, -5.325859251710628e+00, 2.795117723191383e-02
124, 4.844550253940727e-03, 1.197282395742617e-02, 9.175636353012356e-01, -5.234194501125772e+00, 2.601495715671193e-02
125, 6.539262457263904e-03, 1.383809857182712e-02, 9.202431601476045e-01, -5.064066347118803e+00, 2.364129092027702e-02
126, 8.660977829023099e-03, 1.583432528109248e-02, 9.238811340065728e-01, -4.833084433369956e+00, 2.114019820599421e-02
127, 1.127516040568753e-02, 1.795262732974055e-02, 9.281876519830964e-01, -4.559655375775424e+00, 1.868067037924445e-02
128, 1.445220176983436e-02, 2.018402699183120e-02, 9.327091361771577e-01, -4.272577702153649e+00, 1.652023930124820e-02
129, 1.826885694420899e-02, 2.251990184158066e-02, 9.372092046599688e-01, -3.986859752972074e+00, 1.468293165078367e-02
130, 2.280943840314228e-02, 2.495170224324787e-02, 9.417830439666797e-01, -3.696457953179209e+00, 1.311866431521016e-02
131, 2.816723852845177e-02, 2.747032780762686e-02, 9.462398523636449e-01, -3.413486669533173e+00, 1.179494371160719e-02
132, 3.444508613354828e-02, 3.006547322513315e-02, 9.504351373723914e-01, -3.147120005667995e+00, 1.066340618202581e-02
133, 4.175587666597640e-02, 3.272472343714138e-02, 9.542917579798392e-01, -2.902255791947618e+00, 9.685496034439139e-03
134, 5.022241269281980e-02, 3.543266689313175e-02, 9.578535385407960e-01, -2.676111536321613e+00, 8.843166674871769e-03
135, 5.997667081468780e-02, 3.816999333895075e-02, 9.611442026118505e-01, -2.467180984838127e+00, 8.123718005161408e-03
136, 7.115831019507564e-02, 4.091264364582575e-02, 9.641229512050865e-01, -2.278054543221126e+00, 7.494473396571466e-03
137, 8.391230598775640e-02, 4.363106518191866e-02, 9.668821024345930e-01, -2.102870757954827e+00, 6.933892729480428e-03
138, 9.838551560707631e-02, 4.628967359536866e-02, 9.694194977922621e-01, -1.941766676844673e+00, 6.432029406121586e-03
139, 1.147220644607960e-01, 4.884662296736836e-02, 9.717518892184260e-01, -1.793678687180136e+00, 5.975011176362257e-03
140, 1.330574640426540e-01, 5.125402534032247e-02, 9.739326090924211e-01, -1.655220614260290e+00, 5.558960825188010e-03
141, 1.535114573822800e-01, 5.345875993159088e-02, 9.759429229761736e-01, -1.527581943366508e+00, 5.177446891119439e-03
142, 1.761797307835840e-01, 5.540399685055070e-02, 9.778371766097663e-01, -1.407312159587180e+00, 4.825624866922208e-03
55, 9.535602429161220e-01, -6.402177880090121e-03, 1.002378404516459e+00, 1.508573070956364e-01, 2.323409042711144e-03
56, 9.426407105822270e-01, -7.855481327107042e-03, 1.002267924592949e+00, 1.438427255861153e-01, 2.369365549110756e-03
57, 9.302547962764830e-01, -9.481022247350132e-03, 1.002153064171080e+00, 1.365500178631319e-01, 2.408724544990899e-03
58, 9.162555145009680e-01, -1.128961886009035e-02, 1.002037839869514e+00, 1.292342067227100e-01, 2.440407335611837e-03
59, 9.004962734807360e-01, -1.329003047580013e-02, 1.001927690668432e+00, 1.222406234122619e-01, 2.470396342427293e-03
60, 8.828360320456839e-01, -1.548809659764239e-02, 1.001828145077349e+00, 1.159202835678752e-01, 2.493513775296812e-03
61, 8.631457374960591e-01, -1.788578165295289e-02, 1.001744375004162e+00, 1.106015615072909e-01, 2.517365801693008e-03
62, 8.413159970120960e-01, -2.048015683562499e-02, 1.001679294160666e+00, 1.064694543614243e-01, 2.541532812465376e-03
63, 8.172657826166300e-01, -2.326236201353585e-02, 1.001633892651120e+00, 1.035868257421592e-01, 2.564621793070694e-03
64, 7.909517772165610e-01, -2.621660130830753e-02, 1.001607986984420e+00, 1.019420254485391e-01, 2.587387536331278e-03
65, 7.623777524675190e-01, -2.931923744885270e-02, 1.001601066517402e+00, 1.015026317701497e-01, 2.609867599011832e-03
66, 7.316031585245610e-01, -3.253806414443636e-02, 1.001612696499553e+00, 1.022410415658661e-01, 2.632693573526757e-03
67, 6.987499446352849e-01, -3.583185629664898e-02, 1.001642755724143e+00, 1.041495591887894e-01, 2.656205602430421e-03
68, 6.640065698311099e-01, -3.915032464739417e-02, 1.001691536770888e+00, 1.072467610843539e-01, 2.680567422875631e-03
69, 6.276282525902900e-01, -4.243462858861940e-02, 1.001760223258282e+00, 1.116077974529329e-01, 2.705851984183840e-03
70, 5.899327756923080e-01, -4.561861289428874e-02, 1.001851110534525e+00, 1.173784043390271e-01, 2.731938311763138e-03
71, 5.512916003363530e-01, -4.863090808605761e-02, 1.001968066638734e+00, 1.248041709393814e-01, 2.758007639182409e-03
72, 5.121166001065770e-01, -5.139794887290158e-02, 1.002113386620794e+00, 1.340308143577422e-01, 2.783591701243618e-03
73, 4.728433082391680e-01, -5.384781416072871e-02, 1.002290429349885e+00, 1.452715956184727e-01, 2.804042934057030e-03
74, 4.339120676130220e-01, -5.591460064650605e-02, 1.002509475607904e+00, 1.591792612142156e-01, 2.822105502744280e-03
75, 3.957487779587870e-01, -5.754285488135374e-02, 1.002769683915761e+00, 1.757003840293286e-01, 2.834660121820016e-03
76, 3.587469844042950e-01, -5.869148183384367e-02, 1.003087420424389e+00, 1.958740822679365e-01, 2.840034396148780e-03
77, 3.232528390902350e-01, -5.933656107664884e-02, 1.003458453394443e+00, 2.194316747107344e-01, 2.840172299346800e-03
78, 2.895540445181870e-01, -5.947265120547269e-02, 1.003871230674418e+00, 2.456396931783366e-01, 2.840571976529237e-03
79, 2.578733448481230e-01, -5.911241796041434e-02, 1.004360901563774e+00, 2.767298338762794e-01, 2.821640219999885e-03
80, 2.283665749856950e-01, -5.828472232042683e-02, 1.004928077505602e+00, 3.127409184949124e-01, 2.780119848349633e-03
81, 2.011247989315330e-01, -5.703150512358030e-02, 1.005563268686213e+00, 3.530704206248682e-01, 2.721947902725087e-03
82, 1.761797307773510e-01, -5.540399685008031e-02, 1.006266754010153e+00, 3.977360484487661e-01, 2.642781590283548e-03
83, 1.535114573767690e-01, -5.345875993105773e-02, 1.007031401701457e+00, 4.462849918793843e-01, 2.537822342878651e-03
84, 1.330574640378200e-01, -5.125402533974487e-02, 1.007855506422362e+00, 4.986089757625812e-01, 2.403663603065370e-03
85, 1.147220644565820e-01, -4.884662296676224e-02, 1.008728914113224e+00, 5.540632994435790e-01, 2.241286015771499e-03
86, 9.838551560343448e-02, -4.628967359474944e-02, 1.009643067022930e+00, 6.121046149473890e-01, 2.058805467963588e-03
87, 8.391230598462590e-02, -4.363106518129783e-02, 1.010582377284758e+00, 6.717432188219231e-01, 1.872967448873580e-03
88, 7.115831019240228e-02, -4.091264364521334e-02, 1.011550252963181e+00, 7.331954955945825e-01, 1.706166830211933e-03
89, 5.997667081241873e-02, -3.816999333835450e-02, 1.012576656687665e+00, 7.983638298793314e-01, 1.556428216306155e-03
90, 5.022241269090757e-02, -3.543266689255811e-02, 1.013517066679491e+00, 8.580722577134193e-01, 1.415667030390400e-03
91, 4.175587666437301e-02, -3.272472343659386e-02, 1.014373151333790e+00, 9.124267086926252e-01, 1.278486967254623e-03
92, 3.444508613221498e-02, -3.006547322461565e-02, 1.015097082576901e+00, 9.583904870040099e-01, 1.068296086289820e-03
93, 2.816723852735188e-02, -2.747032780714164e-02, 1.015610306240587e+00, 9.909760383617683e-01, 1.698081231638916e-03
48, 1.000000000000000e+00, 5.352202629500000e-08, 1.002692441892103e+00, 1.707961403107413e-01, 7.932858056067201e-06
49, 9.957820729228830e-01, -5.967886532841323e-04, 1.003092311407032e+00, 1.961846201043718e-01, 2.680269086289108e-03
50, 9.909241437988340e-01, -1.280289614488857e-03, 1.003023934990104e+00, 1.918432707023023e-01, 2.691999100075610e-03
51, 9.853368952903420e-01, -2.061293361678059e-03, 1.002843369037956e+00, 1.803787932755781e-01, 2.411063931038894e-03
52, 9.789211302792580e-01, -2.951446198418808e-03, 1.002695413255709e+00, 1.709847978653926e-01, 2.257572805408366e-03
53, 9.715675460812661e-01, -3.963073044857662e-03, 1.002581316264469e+00, 1.637405618122239e-01, 2.238609016874756e-03
54, 9.631568360186920e-01, -5.108981458577545e-03, 1.002481442070508e+00, 1.573993583430506e-01, 2.273480606777948e-03
