"Global_Index", "x_coord", "y_coord", "Pressure", "Pressure_Coefficient", "Skin_Friction_Coefficient"
24, 1.000000000000000e+00, 5.352202629500000e-08, 9.980924928656885e-01, -1.212634154909657e-01, 6.180109155053983e-05
25, 9.909241437988340e-01, -1.280289614488857e-03, 9.991377819991775e-01, -5.489601049189890e-02, 1.859970016468850e-03
26, 9.789211302792580e-01, -2.951446198418808e-03, 9.989461046118097e-01, -6.706597417854045e-02, 3.778536865213346e-03
27, 9.631568360186920e-01, -5.108981458577545e-03, 9.989766505889397e-01, -6.512655170648746e-02, 3.888582614941787e-03
28, 9.426407105822270e-01, -7.855481327107042e-03, 9.991123503428821e-01, -5.651071495889608e-02, 3.455886904743099e-03
29, 9.162555145009680e-01, -1.128961886009035e-02, 9.992549490276968e-01, -4.745685190395123e-02, 3.151446925642543e-03
30, 8.828360320456839e-01, -1.548809659764239e-02, 9.994149399504644e-01, -3.729872241871953e-02, 3.078270726112408e-03
31, 8.413159970120960e-01, -2.048015683562499e-02, 9.995936921579321e-01, -2.594940310847963e-02, 3.076923345421404e-03
32, 7.909517772165610e-01, -2.621660130830753e-02, 9.997677853382930e-01, -1.489589433428973e-02, 3.030059707530851e-03
33, 7.316031585245610e-01, -3.253806414443636e-02, 9.999325104828984e-01, -4.437180055813526e-03, 2.953799913175285e-03
34, 6.640065698311099e-01, -3.915032464739417e-02, 1.000098392114745e+00, 6.094961808072585e-03, 2.896743821541331e-03
35, 5.899327756923080e-01, -4.561861289428874e-02, 1.000281792944322e+00, 1.773943102116759e-02, 2.904607382274907e-03
36, 5.121166001065770e-01, -5.139794887290158e-02, 1.000512075390325e+00, 3.236050366832433e-02, 3.027392974272593e-03
37, 4.339120676130220e-01, -5.591460064650605e-02, 1.000791061942138e+00, 5.007389308403811e-02, 3.167847872019014e-03
38, 3.587469844042950e-01, -5.869148183384367e-02, 1.001157641621962e+00, 7.334873761829841e-02, 3.376947446754403e-03
39, 2.895540445181870e-01, -5.947265120547269e-02, 1.001640471571861e+00, 1.040045339946190e-01, 3.568121064072505e-03
40, 2.283665749856950e-01, -5.828472232042683e-02, 1.002288056403940e+00, 1.451209327448887e-01, 3.691860160450077e-03
41, 1.761797307773510e-01, -5.540399685008031e-02, 1.003213934749305e+00, 2.039067185700824e-01, 3.731809659205682e-03
42, 1.330574640378200e-01, -5.125402533974487e-02, 1.004472484790064e+00, 2.838144661880180e-01, 3.632412696495677e-03
43, 9.838551560343448e-02, -4.628967359474944e-02, 1.006050324648201e+00, 3.839945345860631e-01, 3.390065725409014e-03
44, 7.115831019240228e-02, -4.091264364521334e-02, 1.007855562694419e+00, 4.986125485830225e-01, 3.401574229306048e-03
45, 5.022241269090757e-02, -3.543266689255811e-02, 1.009877883137552e+00, 6.270135388805933e-01, 3.624954949812168e-03
46, 3.444508613221498e-02, -3.006547322461565e-02, 1.011909420039214e+00, 7.559996997460966e-01, 3.542220774758767e-03
47, 2.280943840223927e-02, -2.495170224279449e-02, 1.013694969282648e+00, 8.693676340220188e-01, 6.695959493103656e-03
48, 1.445220176924677e-02, -2.018402699144572e-02, 1.016189617688528e+00, 1.027757629458672e+00, 4.904330596099798e-03
49, 8.660977828664375e-03, -1.583432528077909e-02, 1.014481224189140e+00, 9.192884608438807e-01, 5.939831857674752e-03
50, 4.844550253733529e-03, -1.197282395717829e-02, 1.010781315160598e+00, 6.843741647989470e-01, 7.929566477362921e-03
51, 2.493434235242850e-03, -8.666019672232862e-03, 1.003781156920543e+00, 2.399207383822936e-01, 1.219810597114637e-02
52, 1.159193085740397e-03, -5.950300022223502e-03, 9.931170690076061e-01, -4.371625860192181e-01, 1.519508162329772e-02
53, 4.691284473891598e-04, -3.805771251873249e-03, 9.763887249426543e-01, -1.499277124430876e+00, 1.551539077211708e-02
54, 1.500786146402364e-04, -2.161299885350869e-03, 9.722302324723536e-01, -1.763307759706696e+00, 1.342406898094760e-02
55, 2.721275945542452e-05, -9.231024271926752e-04, 9.735409103199775e-01, -1.680090317996371e+00, 1.104918045083957e-02
56, 0.000000000000000e+00, 0.000000000000000e+00, 9.722267870265874e-01, -1.763526517643849e+00, 1.014979201901385e-02
57, 2.721275945665566e-05, 9.231024272135111e-04, 9.715391241710304e-01, -1.807187546707867e+00, 1.450205226119237e-02
58, 1.500786146456709e-04, 2.161299885389794e-03, 9.763694512588332e-01, -1.500500847455438e+00, 2.538379691368106e-02
59, 4.691284474090552e-04, 3.805771251953191e-03, 9.567080924559822e-01, -2.748838097595339e+00, 3.687439821122337e-02
60, 1.159193085789885e-03, 5.950300022348630e-03, 9.476645564373936e-01, -3.323029484782122e+00, 3.856340637684799e-02
61, 2.493434235350970e-03, 8.666019672416576e-03, 9.450468892263163e-01, -3.489230179292805e+00, 2.275756550183471e-02
62, 4.844550253940727e-03, 1.197282395742617e-02, 9.445583179187846e-01, -3.520250505438975e+00, 1.849423584791091e-02
63, 8.660977829023099e-03, 1.583432528109248e-02, 9.472738289753454e-01, -3.347837518164668e+00, 1.554007267025320e-02
64, 1.445220176983436e-02, 2.018402699183120e-02, 9.520955868240591e-01, -3.041694896280824e+00, 1.231881303907741e-02
65, 2.280943840314228e-02, 2.495170224324787e-02, 9.579789759206625e-01, -2.668147277319111e+00, 8.463508538934059e-03
66, 3.444508613354828e-02, 3.006547322513315e-02, 9.636305415465323e-01, -2.309318573610168e+00, 6.524312216203698e-03
67, 5.022241269281980e-02, 3.543266689313175e-02, 9.687375931171461e-01, -1.985062108026604e+00, 4.942331318171104e-03
68, 7.115831019507564e-02, 4.091264364582575e-02, 9.733852789133116e-01, -1.689971653471745e+00, 3.610239138458081e-03
69, 9.838551560707631e-02, 4.628967359536866e-02, 9.777735611920512e-01, -1.411351224049286e+00, 2.555952299500043e-03
70, 1.330574640426540e-01, 5.125402534032247e-02, 9.818326413110687e-01, -1.153632468968270e+00, 1.788248753576214e-03
71, 1.761797307835840e-01, 5.540399685055070e-02, 9.854623534444470e-01, -9.231751079681849e-01, 1.305378018523721e-03
72, 2.283665749934740e-01, 5.828472232071416e-02, 9.885758439307805e-01, -7.254936460194475e-01, 1.158421971581070e-03
73, 2.895540445275380e-01, 5.947265120550563e-02, 9.910633035970720e-01, -5.675600773994617e-01, 1.050927496052578e-03
74, 3.587469844150750e-01, 5.869148183357661e-02, 9.928565432002070e-01, -4.537038674871050e-01, 1.182990243473766e-03
75, 4.339120676248920e-01, 5.591460064593561e-02, 9.941619949806872e-01, -3.708182387685729e-01, 9.949186260905349e-04
76, 5.121166001190330e-01, 5.139794887207108e-02, 9.950070410269570e-01, -3.171646501117683e-01, 9.169729628334695e-04
77, 5.899327757047460e-01, 4.561861289327686e-02, 9.955381901283795e-01, -2.834409784503832e-01, 6.034748586151064e-04
78, 6.640065698429310e-01, 3.915032464629472e-02, 9.956677824887433e-01, -2.752129117944696e-01, 1.565481118203625e-04
79, 7.316031585352730e-01, 3.253806414333830e-02, 9.954627548720648e-01, -2.882305070570145e-01, 2.661518538745530e-04
80, 7.909517772258660e-01, 2.621660130727932e-02, 9.950270250924727e-01, -3.158958235956289e-01, 6.583225905795544e-04
81, 8.413159970197970e-01, 2.048015683472137e-02, 9.953406852313311e-01, -2.959809418650586e-01, 9.059598981514787e-04
82, 8.828360320518041e-01, 1.548809659688852e-02, 9.960438514354024e-01, -2.513355755715354e-01, 8.432775931537061e-04
83, 9.162555145056280e-01, 1.128961885949327e-02, 9.969236491742354e-01, -1.954755355312318e-01, 5.464961318644669e-04
84, 9.426407105856069e-01, 7.855481326660181e-03, 9.974183411808374e-01, -1.640665945022831e-01, 1.510826731287518e-04
85, 9.631568360209350e-01, 5.108981458273515e-03, 9.976696900656963e-01, -1.481079733867892e-01, 3.017110612812498e-04
86, 9.789211302805760e-01, 2.951446198236615e-03, 9.977558917300008e-01, -1.426348649585066e-01, 9.090147719255428e-04
87, 9.909241437994040e-01, 1.280289614408968e-03, 9.975516838908329e-01, -1.556004109800180e-01, 1.879340701763739e-03
