"Global_Index", "x_coord", "y_coord", "Pressure", "Pressure_Coefficient", "Skin_Friction_Coefficient"
96, 1.000000000000000e+00, 5.352202629500000e-08, 1.003117250410918e+00, 1.977680451282704e-01, 4.767904820789731e-05
97, 9.979658291430820e-01, -2.881794857271442e-04, 1.003417631464075e+00, 2.168398123266252e-01, 2.100339375571208e-03
98, 9.957820729228830e-01, -5.967886532841323e-04, 1.003254708920418e+00, 2.064955486278072e-01, 2.346748759157340e-03
99, 9.934384637941019e-01, -9.270488597400344e-04, 1.003090406138561e+00, 1.960636509674847e-01, 2.239153530781572e-03
100, 9.909241437988340e-01, -1.280289614488857e-03, 1.002952674731453e+00, 1.873188206772228e-01, 2.116088981606637e-03
101, 9.882276487590520e-01, -1.657893415929766e-03, 1.002839438083484e+00, 1.801292094627659e-01, 2.043617292870442e-03
102, 9.853368952903420e-01, -2.061293361678059e-03, 1.002745612189682e+00, 1.741720241311045e-01, 2.027185340167160e-03
103, 9.822391712272380e-01, -2.491969834944034e-03, 1.002664603766254e+00, 1.690286444921776e-01, 2.048731091631514e-03
104, 9.789211302792580e-01, -2.951446198418808e-03, 1.002591194104487e+00, 1.643677247549765e-01, 2.087519245596690e-03
105, 9.753687917200690e-01, -3.441283350046040e-03, 1.002522229678225e+00, 1.599890415164205e-01, 2.129188262385886e-03
106, 9.715675460812661e-01, -3.963073044857662e-03, 1.002456286991457e+00, 1.558022142939530e-01, 2.167031358934975e-03
107, 9.675021678017420e-01, -4.518429822299970e-03, 1.002392931896234e+00, 1.517796782044458e-01, 2.199698864659347e-03
108, 9.631568360186920e-01, -5.108981458577545e-03, 1.002332129408180e+00, 1.479192120230234e-01, 2.228304967090351e-03
109, 9.585151646336830e-01, -5.736357801147233e-03, 1.002273894518313e+00, 1.442217675581129e-01, 2.254388540325896e-03
110, 9.535602429161220e-01, -6.402177880090121e-03, 1.002218267730971e+00, 1.406899165074458e-01, 2.279049038620888e-03
111, 9.482746880048850e-01, -7.108035234927211e-03, 1.002165253038296e+00, 1.373239123398859e-01, 2.302814127475387e-03
112, 9.426407105822270e-01, -7.855481327107042e-03, 1.002114819728772e+00, 1.341218051224412e-01, 2.325835322829916e-03
113, 9.366401951685740e-01, -8.646007049145999e-03, 1.002066967461074e+00, 1.310835731838779e-01, 2.348120575920359e-03
114, 9.302547962764830e-01, -9.481022247350132e-03, 1.002021719211205e+00, 1.282106753144354e-01, 2.369641773330677e-03
115, 9.234660517702999e-01, -1.036183331256595e-02, 1.001979116860706e+00, 1.255057706532098e-01, 2.390380218995328e-03
116, 9.162555145009680e-01, -1.128961886009035e-02, 1.001939222891267e+00, 1.229728262821688e-01, 2.410378864256450e-03
117, 9.086049032279730e-01, -1.226540359178139e-02, 1.001902111351279e+00, 1.206165436751737e-01, 2.429667692413826e-03
118, 9.004962734807360e-01, -1.329003047580013e-02, 1.001867865172489e+00, 1.184421883273265e-01, 2.448264848287775e-03
119, 8.919122087664410e-01, -1.436413140679768e-02, 1.001836573540302e+00, 1.164554227905296e-01, 2.466245227258630e-03
120, 8.828360320456839e-01, -1.548809659764239e-02, 1.001808329856523e+00, 1.146621773237905e-01, 2.483574082748872e-03
121, 8.732520369379220e-01, -1.666204293780597e-02, 1.001783230426657e+00, 1.130685665478443e-01, 2.500344308074188e-03
122, 8.631457374960591e-01, -1.788578165295289e-02, 1.001761371728469e+00, 1.116807160202033e-01, 2.516501992457626e-03
123, 8.525041346896460e-01, -1.915878563887750e-02, 1.001742850840640e+00, 1.105047894520365e-01, 2.532137854233933e-03
124, 8.413159970120960e-01, -2.048015683562499e-02, 1.001727760454593e+00, 1.095466719989266e-01, 2.547214584706302e-03
125, 8.295721517532200e-01, -2.184859409030840e-02, 1.001716193134331e+00, 1.088122407262559e-01, 2.561793930104734e-03
126, 8.172657826166300e-01, -2.326236201353585e-02, 1.001708233851201e+00, 1.083068906273868e-01, 2.575898188631865e-03
127, 8.043927284804649e-01, -2.471926132528821e-02, 1.001703965145593e+00, 1.080358623493220e-01, 2.589550142229828e-03
128, 7.909517772165610e-01, -2.621660130830753e-02, 1.001703464524453e+00, 1.080040769562888e-01, 2.602806735798247e-03
129, 7.769449477048480e-01, -2.775117492280826e-02, 1.001706805399541e+00, 1.082161955012033e-01, 2.615696735084102e-03
130, 7.623777524675190e-01, -2.931923744885270e-02, 1.001714060292911e+00, 1.086768225479259e-01, 2.628282049079380e-03
131, 7.472594328699030e-01, -3.091648930628510e-02, 1.001725299267013e+00, 1.093904064952688e-01, 2.640605210339819e-03
132, 7.316031585245610e-01, -3.253806414443636e-02, 1.001740595320985e+00, 1.103615821980772e-01, 2.652721080508148e-03
133, 7.154261825498690e-01, -3.417852304597178e-02, 1.001760024152383e+00, 1.115951558388237e-01, 2.664673089082923e-03
134, 6.987499446352849e-01, -3.583185629664898e-02, 1.001783668910621e+00, 1.130964067328169e-01, 2.676500742028427e-03
135, 6.816001145580280e-01, -3.749149362242028e-02, 1.001811623563409e+00, 1.148713010694607e-01, 2.688233796909407e-03
136, 6.640065698311099e-01, -3.915032464739417e-02, 1.001843998571260e+00, 1.169268521978940e-01, 2.699896059546769e-03
137, 6.460033025913720e-01, -4.080073056778152e-02, 1.001880926442070e+00, 1.192714732976879e-01, 2.711497223038774e-03
138, 6.276282525902900e-01, -4.243462858861940e-02, 1.001922570465098e+00, 1.219155319160560e-01, 2.723034225235509e-03
139, 6.089230652104620e-01, -4.404353001843556e-02, 1.001969134745967e+00, 1.248719871091103e-01, 2.734505564469264e-03
140, 5.899327756923080e-01, -4.561861289428874e-02, 1.002020875044654e+00, 1.281570775666216e-01, 2.745898553595940e-03
141, 5.707054231490321e-01, -4.715080946865579e-02, 1.002078109617104e+00, 1.317910099667902e-01, 2.757211072776063e-03
142, 5.512916003363530e-01, -4.863090808605761e-02, 1.002141225464562e+00, 1.357983557584014e-01, 2.768425987106623e-03
143, 5.317439474301470e-01, -5.004966851411126e-02, 1.002210685028885e+00, 1.402084762588184e-01, 2.779542756836354e-03
144, 5.121166001065770e-01, -5.139794887290158e-02, 1.002287025471480e+00, 1.450554768725259e-01, 2.790366578398894e-03
145, 4.924646039207970e-01, -5.266684144175821e-02, 1.002370894605341e+00, 1.503804884846772e-01, 2.800153815681383e-03
146, 4.728433082391680e-01, -5.384781416072871e-02, 1.002462974169715e+00, 1.562267960230680e-01, 2.809937517362423e-03
147, 4.533077537294870e-01, -5.493285287912920e-02, 1.002563939156415e+00, 1.626372560081572e-01, 2.819255148444400e-03
148, 4.339120676130220e-01, -5.591460064650605e-02, 1.002674562677667e+00, 1.696609548127220e-01, 2.827846938486698e-03
149, 4.147088805266780e-01, -5.678648875377961e-02, 1.002795650721213e+00, 1.773490661391464e-01, 2.835502430514758e-03
150, 3.957487779587870e-01, -5.754285488135374e-02, 1.002928024182328e+00, 1.857537101973938e-01, 2.841983221525767e-03
151, 3.770797978812900e-01, -5.817904262446177e-02, 1.003072505662562e+00, 1.949271155322374e-01, 2.847028048690592e-03
152, 3.587469844042950e-01, -5.869148183384367e-02, 1.003229901135307e+00, 2.049204549346793e-01, 2.850351551651648e-03
153, 3.407920053178110e-01, -5.907774237985596e-02, 1.003400990742478e+00, 2.157832611062153e-01, 2.851646087485513e-03
154, 3.232528390902350e-01, -5.933656107664884e-02, 1.003586512371428e+00, 2.275623839251074e-01, 2.850604399868270e-03
155, 3.061635345664540e-01, -5.946784792894075e-02, 1.003787152782644e+00, 2.403014271273386e-01, 2.846874555277815e-03
156, 2.895540445181870e-01, -5.947265120547269e-02, 1.004003541805901e+00, 2.540403798091490e-01, 2.840132355256237e-03
157, 2.734501317315010e-01, -5.935311774455410e-02, 1.004236233149659e+00, 2.688143979790638e-01, 2.830021145925324e-03
158, 2.578733448481230e-01, -5.911241796041434e-02, 1.004485696384157e+00, 2.846532955490224e-01, 2.816159092487801e-03
159, 2.428410589052540e-01, -5.875464540499853e-02, 1.004752326512975e+00, 3.015821520512856e-01, 2.798185175460472e-03
160, 2.283665749856950e-01, -5.828472232042683e-02, 1.005036411377701e+00, 3.196192430984632e-01, 2.775684814410046e-03
161, 2.144592713403360e-01, -5.770827281676661e-02, 1.005338148147495e+00, 3.387770873373900e-01, 2.748303059925482e-03
162, 2.011247989315330e-01, -5.703150512358030e-02, 1.005657633978709e+00, 3.590618534105450e-01, 2.715654937814028e-03
163, 1.883653126994450e-01, -5.626108209808330e-02, 1.005994839132404e+00, 3.804716531358440e-01, 2.677379498796694e-03
164, 1.761797307773510e-01, -5.540399685008031e-02, 1.006349630951465e+00, 4.029980638595531e-01, 2.633074413380576e-03
165, 1.645640139002550e-01, -5.446745448005801e-02, 1.006721752592526e+00, 4.266247781053685e-01, 2.582439868104730e-03
268, 5.022241269281980e-02, 3.543266689313175e-02, 9.562929035884707e-01, -2.775199232365055e+00, 9.746648679084504e-03
269, 5.493000569713665e-02, 3.679903989336144e-02, 9.580340070099757e-01, -2.664653248274909e+00, 9.331136051850925e-03
270, 5.997667081468780e-02, 3.816999333895075e-02, 9.597031806392395e-01, -2.558674224177186e+00, 8.943389322598220e-03
271, 6.538009589379461e-02, 3.954236389553951e-02, 9.613026980037526e-01, -2.457117809466029e+00, 8.580895557845476e-03
272, 7.115831019507564e-02, 4.091264364582575e-02, 9.628370462228935e-01, -2.359699108355623e+00, 8.241249214247922e-03
273, 7.732958126964475e-02, 4.227696117640378e-02, 9.643092908643307e-01, -2.266223482095322e+00, 7.922456739810423e-03
274, 8.391230598775640e-02, 4.363106518191866e-02, 9.657224399810438e-01, -2.176499943652015e+00, 7.622500347014735e-03
275, 9.092487458748623e-02, 4.497031464222394e-02, 9.670799465408927e-01, -2.090309257496442e+00, 7.339509359150135e-03
276, 9.838551560707631e-02, 4.628967359536866e-02, 9.683854086749590e-01, -2.007422971408939e+00, 7.071946283309339e-03
277, 1.063121233669820e-01, 4.758371320865407e-02, 9.696411843184343e-01, -1.927691375577362e+00, 6.818355444267166e-03
278, 1.147220644607960e-01, 4.884662296736836e-02, 9.708504043714051e-01, -1.850915683170956e+00, 6.577307251405041e-03
279, 1.236319622128720e-01, 5.007222893977906e-02, 9.720162900665384e-01, -1.776891371970800e+00, 6.347703281677982e-03
280, 1.330574640426540e-01, 5.125402534032247e-02, 9.731405758370965e-01, -1.705508319493965e+00, 6.128449893621475e-03
281, 1.430129884353940e-01, 5.238521407904258e-02, 9.742261976184623e-01, -1.636580117591373e+00, 5.918600550890136e-03
282, 1.535114573822800e-01, 5.345875993159088e-02, 9.752752659773033e-01, -1.569972762351284e+00, 5.717393996864831e-03
283, 1.645640139061220e-01, 5.446745448056218e-02, 9.762894882664999e-01, -1.505577850675971e+00, 5.524074112478192e-03
284, 1.761797307835840e-01, 5.540399685055070e-02, 9.772711546940464e-01, -1.443249972882481e+00, 5.338039442987580e-03
285, 1.883653127060570e-01, 5.626108209851536e-02, 9.782213523171808e-01, -1.382920109629028e+00, 5.158764151975853e-03
286, 2.011247989385280e-01, 5.703150512396883e-02, 9.791419057988892e-01, -1.324472409575056e+00, 4.985773849884899e-03
287, 2.144592713477200e-01, 5.770827281710689e-02, 9.800338289609248e-01, -1.267842503239678e+00, 4.818692763592209e-03
288, 2.283665749934740e-01, 5.828472232071416e-02, 9.808983661452367e-01, -1.212951384974184e+00, 4.657168342741382e-03
289, 2.428410589134270e-01, 5.875464540522825e-02, 9.817365524013485e-01, -1.159733337505975e+00, 4.500947349499779e-03
290, 2.578733448566950e-01, 5.911241796058234e-02, 9.825491161877763e-01, -1.108142109611519e+00, 4.349780229932075e-03
291, 2.734501317404630e-01, 5.935311774465631e-02, 9.833370486830965e-01, -1.058114769468517e+00, 4.203507281099935e-03
292, 2.895540445275380e-01, 5.947265120550563e-02, 9.841007507341279e-01, -1.009625866546273e+00, 4.061949485324579e-03
293, 3.061635345761830e-01, 5.946784792890163e-02, 9.848411321527363e-01, -9.626176351504765e-01, 3.924997405304726e-03
294, 3.232528391003260e-01, 5.933656107653527e-02, 9.855583685521085e-01, -9.170789252642204e-01, 3.792553191027485e-03
295, 3.407920053282550e-01, 5.907774237966616e-02, 9.862532367357901e-01, -8.729604161456647e-01, 3.664517007952096e-03
296, 3.587469844150750e-01, 5.869148183357661e-02, 9.869258290602793e-01, -8.302562439042114e-01, 3.540844725143225e-03
297, 3.770797978923800e-01, 5.817904262411734e-02, 9.875766844597733e-01, -7.889321905775767e-01, 3.421449789307615e-03
298, 3.957487779701630e-01, 5.754285488093251e-02, 9.882060539906294e-01, -7.489723161177885e-01, 3.306289880391180e-03
299, 4.147088805383200e-01, 5.678648875328256e-02, 9.888140507518843e-01, -7.103694396508354e-01, 3.195263304303633e-03
300, 4.339120676248920e-01, 5.591460064593561e-02, 9.894014435318013e-01, -6.730747493404586e-01, 3.088302848404323e-03
301, 4.533077537415610e-01, 5.493285287848778e-02, 9.899680605696450e-01, -6.370991506040301e-01, 2.985310642057522e-03
302, 4.728433082514070e-01, 5.384781416001998e-02, 9.905144664622441e-01, -6.024067961097724e-01, 2.886102213657906e-03
303, 4.924646039331600e-01, 5.266684144098649e-02, 9.910412522117072e-01, -5.689601620041782e-01, 2.790518006057829e-03
304, 5.121166001190330e-01, 5.139794887207108e-02, 9.915486902568887e-01, -5.367419506236717e-01, 2.698358814003268e-03
305, 5.317439474426470e-01, 5.004966851322778e-02, 9.920375047955449e-01, -5.057061812685086e-01, 2.609298134713393e-03
306, 5.512916003488870e-01, 4.863090808512447e-02, 9.925084339701910e-01, -4.758059878595414e-01, 2.523014915151079e-03
307, 5.707054231615170e-01, 4.715080946768199e-02, 9.929620283713565e-01, -4.470064123516804e-01, 2.439221407047985e-03
308, 5.899327757047460e-01, 4.561861289327686e-02, 9.933990779717893e-01, -4.192572978652550e-01, 2.357748783276669e-03
309, 6.089230652227910e-01, 4.404353001739358e-02, 9.938205493514846e-01, -3.924972743888926e-01, 2.278279284396187e-03
310, 6.276282526025000e-01, 4.243462858755100e-02, 9.942273292383534e-01, -3.666700418726698e-01, 2.200625708347538e-03
311, 6.460033026034030e-01, 4.080073056669482e-02, 9.946201693080765e-01, -3.417278749909104e-01, 2.124706025210935e-03
312, 6.640065698429310e-01, 3.915032464629472e-02, 9.949998767680960e-01, -3.176195226002515e-01, 2.050359161714426e-03
313, 6.816001145696030e-01, 3.749149362131417e-02, 9.953671917613628e-01, -2.942979916100660e-01, 1.977455472163494e-03
314, 6.987499446466160e-01, 3.583185629553873e-02, 9.957228827363603e-01, -2.717144917573686e-01, 1.905875021825358e-03
315, 7.154261825609159e-01, 3.417852304486385e-02, 9.960676092821210e-01, -2.498271444737867e-01, 1.835512469622356e-03
316, 7.316031585352730e-01, 3.253806414333830e-02, 9.964018699931640e-01, -2.286042930403059e-01, 1.766259232352522e-03
317, 7.472594328802760e-01, 3.091648930519984e-02, 9.967261563413375e-01, -2.080147329699148e-01, 1.697996518721968e-03
318, 7.623777524775640e-01, 2.931923744778128e-02, 9.970408796146247e-01, -1.880323508024430e-01, 1.630620243626408e-03
319, 7.769449477145119e-01, 2.775117492175853e-02, 9.973463997514392e-01, -1.686342933600405e-01, 1.564038731546782e-03
320, 7.909517772258660e-01, 2.621660130727932e-02, 9.976430002283412e-01, -1.498025621740828e-01, 1.498193095679462e-03
321, 8.043927284893690e-01, 2.471926132428823e-02, 9.979308913344637e-01, -1.315238055855726e-01, 1.433041352737349e-03
322, 8.172657826251279e-01, 2.326236201256679e-02, 9.982102181346556e-01, -1.137888131499828e-01, 1.368601117530251e-03
323, 8.295721517613170e-01, 2.184859408937147e-02, 9.984810593872548e-01, -9.659258434990838e-02, 1.304903854440614e-03
324, 8.413159970197970e-01, 2.048015683472137e-02, 9.987434312556186e-01, -7.993409294290643e-02, 1.242013939776680e-03
325, 8.525041346969320e-01, 1.915878563801130e-02, 9.989972961149589e-01, -6.381572779867814e-02, 1.180030555394625e-03
326, 8.631457375029460e-01, 1.788578165212381e-02, 9.992425720737208e-01, -4.824268836857276e-02, 1.119084396499764e-03
327, 8.732520369444300e-01, 1.666204293701322e-02, 9.994791437901760e-01, -3.322229791937721e-02, 1.059311044974287e-03
328, 8.828360320518041e-01, 1.548809659688852e-02, 9.997068821905242e-01, -1.876275159337873e-02, 1.000860815732359e-03
329, 8.919122087722000e-01, 1.436413140608066e-02, 9.999256793799856e-01, -4.870899836370111e-03, 9.438524010211865e-04
330, 9.004962734861121e-01, 1.329003047512407e-02, 1.000135463587079e+00, 8.448700443140734e-03, 8.883759262024746e-04
331, 9.086049032329651e-01, 1.226540359114749e-02, 1.000336213104014e+00, 2.119467097600439e-02, 8.344748098159918e-04
332, 9.162555145056280e-01, 1.128961885949327e-02, 1.000527953222212e+00, 3.336861756299099e-02, 7.821505397811222e-04
333, 9.234660517745920e-01, 1.036183331201132e-02, 1.000710791082972e+00, 4.497734280987049e-02, 7.313727134574656e-04
334, 9.302547962804840e-01, 9.481022246828921e-03, 1.000884901265279e+00, 5.603193107007097e-02, 6.821206559133732e-04
335, 9.366401951722300e-01, 8.646007048666101e-03, 1.001050490629734e+00, 6.654551631860942e-02, 6.344232794314692e-04
336, 9.426407105856069e-01, 7.855481326660181e-03, 1.001207745332477e+00, 7.652991796462777e-02, 5.883854693191299e-04
337, 9.482746880079280e-01, 7.108035234522185e-03, 1.001356806572591e+00, 8.599410100772199e-02, 5.441953418603017e-04
338, 9.535602429188660e-01, 6.402177879722490e-03, 1.001497782845687e+00, 9.494495404164610e-02, 5.020902776301979e-04
339, 9.585151646361750e-01, 5.736357800811276e-03, 1.001630782666914e+00, 1.033893669006262e-01, 4.622472233659464e-04
340, 9.631568360209350e-01, 5.108981458273515e-03, 1.001755948893036e+00, 1.113364098336422e-01, 4.245571647581841e-04
341, 9.675021678037270e-01, 4.518429822029544e-03, 1.001873480449422e+00, 1.187987129925782e-01, 3.883390995007866e-04
342, 9.715675460830290e-01, 3.963073044616243e-03, 1.001983637918610e+00, 1.257928212608922e-01, 3.522293040768864e-04
343, 9.753687917215980e-01, 3.441283349835714e-03, 1.002086730279584e+00, 1.323383523047438e-01, 3.146610698141250e-04
344, 9.789211302805760e-01, 2.951446198236615e-03, 1.002183087000380e+00, 1.384562246795076e-01, 2.752657647086428e-04
345, 9.822391712283960e-01, 2.491969834783358e-03, 1.002273016492889e+00, 1.441660200456774e-01, 2.370996587857461e-04
346, 9.853368952912690e-01, 2.061293361548887e-03, 1.002356719774954e+00, 1.494805014102950e-01, 2.091233669073265e-04
347, 9.882276487598231e-01, 1.657893415821940e-03, 1.002434172851891e+00, 1.543981453049957e-01, 2.083711504482536e-04
348, 9.909241437994040e-01, 1.280289614408968e-03, 1.002504642109290e+00, 1.588723731487158e-01, 2.615521362346934e-04
349, 9.934384637945120e-01, 9.270488596823588e-04, 1.002566848449816e+00, 1.628219726068567e-01, 4.065344323979618e-04
350, 9.957820729231800e-01, 5.967886532421940e-04, 1.002614920115984e+00, 1.658741345736172e-01, 6.987083355632304e-04
351, 9.979658291431760e-01, 2.881794857138566e-04, 1.002654262972318e+00, 1.683720877202842e-01, 1.276291501300290e-03
166, 1.535114573767690e-01, -5.345875993105773e-02, 1.007110836498159e+00, 4.513284589497229e-01, 2.525113017076969e-03
167, 1.430129884302270e-01, -5.238521407848482e-02, 1.007516365341171e+00, 4.770762603002916e-01, 2.460927159646050e-03
168, 1.330574640378200e-01, -5.125402533974487e-02, 1.007937686584529e+00, 5.038267513336318e-01, 2.389636553686577e-03
169, 1.236319622083540e-01, -5.007222893918521e-02, 1.008373969891855e+00, 5.315272124060481e-01, 2.311353843616516e-03
170, 1.147220644565820e-01, -4.884662296676224e-02, 1.008824217061891e+00, 5.601142658117658e-01, 2.226062233035698e-03
171, 1.063121233630630e-01, -4.758371320803999e-02, 1.009287163992985e+00, 5.895076513207711e-01, 2.134449340838838e-03
172, 9.838551560343448e-02, -4.628967359474944e-02, 1.009761311651438e+00, 6.196121924182684e-01, 2.036943576207192e-03
173, 9.092487458410546e-02, -4.497031464160225e-02, 1.010244741784109e+00, 6.503060955459100e-01, 1.935353131407412e-03
174, 8.391230598462590e-02, -4.363106518129783e-02, 1.010735182737154e+00, 6.814451290593314e-01, 1.831373619549692e-03
175, 7.732958126675092e-02, -4.227696117578635e-02, 1.011229895529516e+00, 7.128553898158975e-01, 1.727841389485276e-03
176, 7.115831019240228e-02, -4.091264364521334e-02, 1.011725727626380e+00, 7.443367173547051e-01, 1.627722503282520e-03
177, 6.538009589133059e-02, -3.954236389493454e-02, 1.012219207437198e+00, 7.756686937563703e-01, 1.533265568446443e-03
