"Global_Index", "x_coord", "y_coord", "Pressure", "Pressure_Coefficient", "Skin_Friction_Coefficient"
96, 1.000000000000000e+00, 5.352202629500000e-08, 1.003815155499355e+00, 2.420793731343246e-01, 2.235832842115799e-07
97, 9.979658291430820e-01, -2.881794857271442e-04, 1.003580791990710e+00, 2.271991860196270e-01, 1.623699354177118e-03
98, 9.957820729228830e-01, -5.967886532841323e-04, 1.003448564473321e+00, 2.188038082074643e-01, 1.383633888519607e-03
99, 9.934384637941019e-01, -9.270488597400344e-04, 1.003302619953791e+00, 2.095375117114116e-01, 1.200429932446315e-03
100, 9.909241437988340e-01, -1.280289614488857e-03, 1.003152453008574e+00, 2.000031253379218e-01, 1.133197002677411e-03
101, 9.882276487590520e-01, -1.657893415929766e-03, 1.003006358924358e+00, 1.907273326940299e-01, 1.141692813517418e-03
102, 9.853368952903420e-01, -2.061293361678059e-03, 1.002866968981488e+00, 1.818771987981777e-01, 1.187018025267545e-03
103, 9.822391712272380e-01, -2.491969834944034e-03, 1.002733350667120e+00, 1.733935166275372e-01, 1.244968862532055e-03
104, 9.789211302792580e-01, -2.951446198418808e-03, 1.002603830417570e+00, 1.651700284250115e-01, 1.304748252507947e-03
105, 9.753687917200690e-01, -3.441283350046040e-03, 1.002477012602563e+00, 1.571181229569788e-01, 1.363249332034901e-03
106, 9.715675460812661e-01, -3.963073044857662e-03, 1.002352052374828e+00, 1.491841592553035e-01, 1.420161977545230e-03
107, 9.675021678017420e-01, -4.518429822299970e-03, 1.002228166808133e+00, 1.413184278370512e-01, 1.475655653595386e-03
108, 9.631568360186920e-01, -5.108981458577545e-03, 1.002104701682188e+00, 1.334793910057243e-01, 1.530045980214933e-03
109, 9.585151646336830e-01, -5.736357801147233e-03, 1.001979467306023e+00, 1.255280210962373e-01, 1.583203105536541e-03
110, 9.535602429161220e-01, -6.402177880090121e-03, 1.001852188840864e+00, 1.174468680695465e-01, 1.635303923477546e-03
111, 9.482746880048850e-01, -7.108035234927211e-03, 1.001723316682090e+00, 1.092645283890993e-01, 1.686477295643446e-03
112, 9.426407105822270e-01, -7.855481327107042e-03, 1.001591878186303e+00, 1.009192470665479e-01, 1.736601724352296e-03
113, 9.366401951685740e-01, -8.646007049145999e-03, 1.001457943180540e+00, 9.241545755393792e-02, 1.786041237440872e-03
114, 9.302547962764830e-01, -9.481022247350132e-03, 1.001321458555364e+00, 8.374978783158490e-02, 1.834791902477383e-03
115, 9.234660517702999e-01, -1.036183331256595e-02, 1.001182498036531e+00, 7.492691888857907e-02, 1.882690021014399e-03
116, 9.162555145009680e-01, -1.128961886009035e-02, 1.001041272640227e+00, 6.596024854604152e-02, 1.929959203518612e-03
117, 9.086049032279730e-01, -1.226540359178139e-02, 1.000897968136850e+00, 5.686157172146967e-02, 1.976721475579831e-03
118, 9.004962734807360e-01, -1.329003047580013e-02, 1.000752824664003e+00, 4.764613521041470e-02, 2.022545043576284e-03
119, 8.919122087664410e-01, -1.436413140679768e-02, 1.000606163022451e+00, 3.833430726647220e-02, 2.067861155442812e-03
120, 8.828360320456839e-01, -1.548809659764239e-02, 1.000458411901537e+00, 2.895330619546977e-02, 2.112406069783729e-03
121, 8.732520369379220e-01, -1.666204293780597e-02, 1.000309684724824e+00, 1.951033347622768e-02, 2.156198862950326e-03
122, 8.631457374960591e-01, -1.788578165295289e-02, 1.000159817260651e+00, 9.994961726646453e-03, 2.199345355741730e-03
123, 8.525041346896460e-01, -1.915878563887750e-02, 1.000009102152776e+00, 4.257714582595158e-04, 2.242043153464647e-03
124, 8.413159970120960e-01, -2.048015683562499e-02, 9.998576814217121e-01, -9.188220175082553e-03, 2.284207509494284e-03
125, 8.295721517532200e-01, -2.184859409030840e-02, 9.997056698325407e-01, -1.883972651898886e-02, 2.326269885811973e-03
126, 8.172657826166300e-01, -2.326236201353585e-02, 9.995531387144995e-01, -2.852421874384840e-02, 2.368067616653190e-03
127, 8.043927284804649e-01, -2.471926132528821e-02, 9.994001251853363e-01, -3.823934017289651e-02, 2.409805852460171e-03
128, 7.909517772165610e-01, -2.621660130830753e-02, 9.992466102708900e-01, -4.798629551188968e-02, 2.451667906332532e-03
129, 7.769449477048480e-01, -2.775117492280826e-02, 9.990925459168641e-01, -5.776813581996395e-02, 2.493691041372172e-03
130, 7.623777524675190e-01, -2.931923744885270e-02, 9.989376797262994e-01, -6.760088626247934e-02, 2.536059373967435e-03
131, 7.472594328699030e-01, -3.091648930628510e-02, 9.987830421701769e-01, -7.741912026726169e-02, 2.578777000485475e-03
132, 7.316031585245610e-01, -3.253806414443636e-02, 9.986276457974329e-01, -8.728553298970290e-02, 2.621795310806814e-03
133, 7.154261825498690e-01, -3.417852304597178e-02, 9.984710515002516e-01, -9.722800422432250e-02, 2.665305356147416e-03
134, 6.987499446352849e-01, -3.583185629664898e-02, 9.983130043448363e-01, -1.072627202051433e-01, 2.709541181791510e-03
135, 6.816001145580280e-01, -3.749149362242028e-02, 9.981533174278989e-01, -1.174015477791555e-01, 2.754717641836593e-03
136, 6.640065698311099e-01, -3.915032464739417e-02, 9.979917968516961e-01, -1.276567978846950e-01, 2.800986856657607e-03
137, 6.460033025913720e-01, -4.080073056778152e-02, 9.978275389074862e-01, -1.380858487170784e-01, 2.848583990364351e-03
138, 6.276282525902900e-01, -4.243462858861940e-02, 9.976613094531326e-01, -1.486400744967317e-01, 2.897661152560894e-03
139, 6.089230652104620e-01, -4.404353001843556e-02, 9.974950781945038e-01, -1.591944148332644e-01, 2.948047468640353e-03
140, 5.899327756923080e-01, -4.561861289428874e-02, 9.973263056088302e-01, -1.699101088812382e-01, 2.999590069047387e-03
141, 5.707054231490321e-01, -4.715080946865579e-02, 9.971549539582453e-01, -1.807895526899274e-01, 3.052570668506661e-03
142, 5.512916003363530e-01, -4.863090808605761e-02, 9.969799919150605e-01, -1.918982272255087e-01, 3.107384190207649e-03
143, 5.317439474301470e-01, -5.004966851411126e-02, 9.968055863381392e-01, -2.029715706544176e-01, 3.164010338090493e-03
144, 5.121166001065770e-01, -5.139794887290158e-02, 9.966297643611015e-01, -2.141348440339547e-01, 3.222037519682239e-03
145, 4.924646039207970e-01, -5.266684144175821e-02, 9.964515181875953e-01, -2.254520342807700e-01, 3.281680270918099e-03
146, 4.728433082391680e-01, -5.384781416072871e-02, 9.962724555748088e-01, -2.368210618179857e-01, 3.343169019483390e-03
147, 4.533077537294870e-01, -5.493285287912920e-02, 9.960944834833392e-01, -2.481208500724290e-01, 3.406271105945459e-03
148, 4.339120676130220e-01, -5.591460064650605e-02, 9.959161982231108e-01, -2.594405220099377e-01, 3.470837835545752e-03
149, 4.147088805266780e-01, -5.678648875377961e-02, 9.957385440171753e-01, -2.707201271042292e-01, 3.537012318170976e-03
150, 3.957487779587870e-01, -5.754285488135374e-02, 9.955637020454616e-01, -2.818211780726118e-01, 3.604563836114581e-03
151, 3.770797978812900e-01, -5.817904262446177e-02, 9.953905878011968e-01, -2.928125323229719e-01, 3.673321360064935e-03
152, 3.587469844042950e-01, -5.869148183384367e-02, 9.952215269375542e-01, -3.035465296902011e-01, 3.743265300433728e-03
153, 3.407920053178110e-01, -5.907774237985596e-02, 9.950568151173300e-01, -3.140043979782432e-01, 3.814400629350666e-03
154, 3.232528390902350e-01, -5.933656107664884e-02, 9.948963486394328e-01, -3.241927213676133e-01, 3.886997905595692e-03
155, 3.061635345664540e-01, -5.946784792894075e-02, 9.947381483278781e-01, -3.342371615244550e-01, 3.961275304962548e-03
156, 2.895540445181870e-01, -5.947265120547269e-02, 9.945754861187381e-01, -3.445648960872371e-01, 4.038708322795752e-03
157, 2.734501317315010e-01, -5.935311774455410e-02, 9.944278250690453e-01, -3.539401783642511e-01, 4.116956829704774e-03
158, 2.578733448481230e-01, -5.911241796041434e-02, 9.942956019764824e-01, -3.623352752357357e-01, 4.194326427735203e-03
159, 2.428410589052540e-01, -5.875464540499853e-02, 9.941722192687157e-01, -3.701690791794358e-01, 4.271501135037114e-03
160, 2.283665749856950e-01, -5.828472232042683e-02, 9.940571658270100e-01, -3.774740421007778e-01, 4.348961650968180e-03
161, 2.144592713403360e-01, -5.770827281676661e-02, 9.939511626341425e-01, -3.842043874251830e-01, 4.426787656491160e-03
162, 2.011247989315330e-01, -5.703150512358030e-02, 9.938549923465474e-01, -3.903104227997192e-01, 4.504955611585387e-03
163, 1.883653126994450e-01, -5.626108209808330e-02, 9.937688206282510e-01, -3.957816298987091e-01, 4.583443948013781e-03
164, 1.761797307773510e-01, -5.540399685008031e-02, 9.936936512438128e-01, -4.005542777917261e-01, 4.662104813689096e-03
165, 1.645640139002550e-01, -5.446745448005801e-02, 9.936294956070731e-01, -4.046276417922327e-01, 4.740798996135789e-03
268, 5.022241269281980e-02, 3.543266689313175e-02, 9.943523083869552e-01, -3.587348768489922e-01, 5.819227864011167e-03
269, 5.493000569713665e-02, 3.679903989336144e-02, 9.941810987616728e-01, -3.696053031997644e-01, 5.762774801401427e-03
270, 5.997667081468780e-02, 3.816999333895075e-02, 9.940298084964733e-01, -3.792110113059998e-01, 5.701931604942654e-03
271, 6.538009589379461e-02, 3.954236389553951e-02, 9.939015205185554e-01, -3.873562602272885e-01, 5.637145261368282e-03
272, 7.115831019507564e-02, 4.091264364582575e-02, 9.937944770670547e-01, -3.941526535606165e-01, 5.569837198310873e-03
273, 7.732958126964475e-02, 4.227696117640378e-02, 9.937047947444448e-01, -3.998467556374639e-01, 5.500497732409356e-03
274, 8.391230598775640e-02, 4.363106518191866e-02, 9.936308187793413e-01, -4.045436310558789e-01, 5.428951776628397e-03
275, 9.092487458748623e-02, 4.497031464222394e-02, 9.935747697636758e-01, -4.081022901897978e-01, 5.355719160410628e-03
276, 9.838551560707631e-02, 4.628967359536866e-02, 9.935342382383460e-01, -4.106757142029351e-01, 5.281475240092061e-03
277, 1.063121233669820e-01, 4.758371320865407e-02, 9.935075936827749e-01, -4.123674279632280e-01, 5.206240348367776e-03
278, 1.147220644607960e-01, 4.884662296736836e-02, 9.934949040421448e-01, -4.131731175011807e-01, 5.130036139949875e-03
279, 1.236319622128720e-01, 5.007222893977906e-02, 9.934966852794805e-01, -4.130600233381657e-01, 5.053229835863867e-03
280, 1.330574640426540e-01, 5.125402534032247e-02, 9.935105789457206e-01, -4.121778879129198e-01, 4.975916768226798e-03
281, 1.430129884353940e-01, 5.238521407904258e-02, 9.935369042380592e-01, -4.105064447854834e-01, 4.897869820726036e-03
282, 1.535114573822800e-01, 5.345875993159088e-02, 9.935771089956739e-01, -4.079537678791459e-01, 4.819386155408754e-03
283, 1.645640139061220e-01, 5.446745448056218e-02, 9.936295460101278e-01, -4.046244416059570e-01, 4.740791712263458e-03
284, 1.761797307835840e-01, 5.540399685055070e-02, 9.936937002392661e-01, -4.005511669767518e-01, 4.662097813481220e-03
285, 1.883653127060570e-01, 5.626108209851536e-02, 9.937688682949626e-01, -3.957786034480832e-01, 4.583437206788692e-03
286, 2.011247989385280e-01, 5.703150512396883e-02, 9.938550387554800e-01, -3.903074762078856e-01, 4.504949112745216e-03
287, 2.144592713477200e-01, 5.770827281710689e-02, 9.939512078457036e-01, -3.842015168567568e-01, 4.426781382364317e-03
288, 2.283665749934740e-01, 5.828472232071416e-02, 9.940572099090781e-01, -3.774712432460174e-01, 4.348955583613076e-03
289, 2.428410589134270e-01, 5.875464540522825e-02, 9.941722622908393e-01, -3.701663476225754e-01, 4.271495260255276e-03
290, 2.578733448566950e-01, 5.911241796058234e-02, 9.942956439902401e-01, -3.623326077019566e-01, 4.194320729441588e-03
291, 2.734501317404630e-01, 5.935311774465631e-02, 9.944278661502461e-01, -3.539375700402863e-01, 4.116951292869265e-03
292, 2.895540445275380e-01, 5.947265120550563e-02, 9.945755263225114e-01, -3.445623434728260e-01, 4.038702934832593e-03
293, 3.061635345761830e-01, 5.946784792890163e-02, 9.947381877040778e-01, -3.342346614542715e-01, 3.961270054605590e-03
294, 3.232528391003260e-01, 5.933656107653527e-02, 9.948963872678538e-01, -3.241902687753305e-01, 3.886992777637934e-03
295, 3.407920053282550e-01, 5.907774237966616e-02, 9.950568530439178e-01, -3.140019899466954e-01, 3.814395609487812e-03
296, 3.587469844150750e-01, 5.869148183357661e-02, 9.952215642254021e-01, -3.035441622134665e-01, 3.743260375754605e-03
297, 3.770797978923800e-01, 5.817904262411734e-02, 9.953906244768392e-01, -2.928102037163352e-01, 3.673316514381764e-03
298, 3.957487779701630e-01, 5.754285488093251e-02, 9.955637382179534e-01, -2.818188814119704e-01, 3.604559057370271e-03
299, 4.147088805383200e-01, 5.678648875328256e-02, 9.957385797197670e-01, -2.707178602784445e-01, 3.537007599005249e-03
300, 4.339120676248920e-01, 5.591460064593561e-02, 9.959162334747024e-01, -2.594382838190130e-01, 3.470833157372599e-03
301, 4.533077537415610e-01, 5.493285287848778e-02, 9.960945184110452e-01, -2.481186324456121e-01, 3.406266456874039e-03
302, 4.728433082514070e-01, 5.384781416001998e-02, 9.962724902038479e-01, -2.368188631541062e-01, 3.343164394267725e-03
303, 4.924646039331600e-01, 5.266684144098649e-02, 9.964515525290062e-01, -2.254498538789511e-01, 3.281675649984067e-03
304, 5.121166001190330e-01, 5.139794887207108e-02, 9.966297985519913e-01, -2.141326731890114e-01, 3.222032890288613e-03
305, 5.317439474426470e-01, 5.004966851322778e-02, 9.968056204012724e-01, -2.029694079209839e-01, 3.164005695512276e-03
306, 5.512916003488870e-01, 4.863090808512447e-02, 9.969800258488795e-01, -1.918960727024824e-01, 3.107379512892205e-03
307, 5.707054231615170e-01, 4.715080946768199e-02, 9.971549879017251e-01, -1.807873975535167e-01, 3.052565940831611e-03
308, 5.899327757047460e-01, 4.561861289327686e-02, 9.973263395971327e-01, -1.699079508989485e-01, 2.999585282242634e-03
309, 6.089230652227910e-01, 4.404353001739358e-02, 9.974951122880206e-01, -1.591922501707189e-01, 2.948042613589313e-03
310, 6.276282526025000e-01, 4.243462858755100e-02, 9.976613436977101e-01, -1.486379002430524e-01, 2.897656217741046e-03
311, 6.460033026034030e-01, 4.080073056669482e-02, 9.978275732840776e-01, -1.380836660815877e-01, 2.848578955651727e-03
312, 6.640065698429310e-01, 3.915032464629472e-02, 9.979918315268789e-01, -1.276545962910673e-01, 2.800981697551877e-03
313, 6.816001145696030e-01, 3.749149362131417e-02, 9.981533524284644e-01, -1.173993255263569e-01, 2.754712348009212e-03
314, 6.987499446466160e-01, 3.583185629553873e-02, 9.983130397285293e-01, -1.072604736268457e-01, 2.709535735457823e-03
315, 7.154261825609159e-01, 3.417852304486385e-02, 9.984710873234827e-01, -9.722572973891250e-02, 2.665299741894289e-03
316, 7.316031585352730e-01, 3.253806414333830e-02, 9.986276821244605e-01, -8.728322651728637e-02, 2.621789513775955e-03
317, 7.472594328802760e-01, 3.091648930519984e-02, 9.987830790610513e-01, -7.741677799513043e-02, 2.578771009723966e-03
318, 7.623777524775640e-01, 2.931923744778128e-02, 9.989377171574219e-01, -6.759850968897267e-02, 2.536053160513618e-03
319, 7.769449477145119e-01, 2.775117492175853e-02, 9.990925840364394e-01, -5.776571553526993e-02, 2.493684574629811e-03
320, 7.909517772258660e-01, 2.621660130727932e-02, 9.992466491314440e-01, -4.798382818104028e-02, 2.451661165467852e-03
321, 8.043927284893690e-01, 2.471926132428823e-02, 9.994001648491422e-01, -3.823682184204809e-02, 2.409798815661196e-03
322, 8.172657826251279e-01, 2.326236201256679e-02, 9.995531792410478e-01, -2.852164563583390e-02, 2.368060259698981e-03
323, 8.295721517613170e-01, 2.184859408937147e-02, 9.997057112844137e-01, -1.883709466034721e-02, 2.326262162997286e-03
324, 8.413159970197970e-01, 2.048015683472137e-02, 9.998577238649002e-01, -9.185525375940803e-03, 2.284199404991374e-03
325, 8.525041346969320e-01, 1.915878563801130e-02, 1.000009145649562e+00, 4.285331523512336e-04, 2.242034639176641e-03
326, 8.631457375029460e-01, 1.788578165212381e-02, 1.000159861875894e+00, 9.997794433675220e-03, 2.199336374648946e-03
327, 8.732520369444300e-01, 1.666204293701322e-02, 1.000309730529643e+00, 1.951324171170995e-02, 2.156189397667414e-03
328, 8.828360320518041e-01, 1.548809659688852e-02, 1.000458458965507e+00, 2.895629437685607e-02, 2.112396089155253e-03
329, 8.919122087722000e-01, 1.436413140608066e-02, 1.000606211414036e+00, 3.833737974068058e-02, 2.067850571738368e-03
330, 9.004962734861121e-01, 1.329003047512407e-02, 1.000752874469555e+00, 4.764929746010101e-02, 2.022533854103375e-03
331, 9.086049032329651e-01, 1.226540359114749e-02, 1.000898019429549e+00, 5.686482839300833e-02, 1.976709618195431e-03
332, 9.162555145056280e-01, 1.128961885949327e-02, 1.001041325500662e+00, 6.596360475610338e-02, 1.929946609323738e-03
333, 9.234660517745920e-01, 1.036183331201132e-02, 1.001182552551534e+00, 7.493038015031404e-02, 1.882676668459654e-03
334, 9.302547962804840e-01, 9.481022246828921e-03, 1.001321514816897e+00, 8.375335998384981e-02, 1.834777716078819e-03
335, 9.366401951722300e-01, 8.646007048666101e-03, 1.001458001302036e+00, 9.241914779879924e-02, 1.786026154962998e-03
336, 9.426407105856069e-01, 7.855481326660181e-03, 1.001591938240351e+00, 1.009230600128511e-01, 1.736585693296064e-03
337, 9.482746880079280e-01, 7.108035234522185e-03, 1.001723378800965e+00, 1.092684724351857e-01, 1.686460203373781e-03
338, 9.535602429188660e-01, 6.402177879722490e-03, 1.001852253137711e+00, 1.174509503992255e-01, 1.635285624539197e-03
339, 9.585151646361750e-01, 5.736357800811276e-03, 1.001979533933882e+00, 1.255322514263408e-01, 1.583183459332001e-03
340, 9.631568360209350e-01, 5.108981458273515e-03, 1.002104770781815e+00, 1.334837782730821e-01, 1.530024778454081e-03
341, 9.675021678037270e-01, 4.518429822029544e-03, 1.002228238683736e+00, 1.413229913564950e-01, 1.475632702367173e-03
342, 9.715675460830290e-01, 3.963073044616243e-03, 1.002352127280940e+00, 1.491889151874827e-01, 1.420137001842524e-03
343, 9.753687917215980e-01, 3.441283349835714e-03, 1.002477091049597e+00, 1.571231037091201e-01, 1.363222171292033e-03
344, 9.789211302805760e-01, 2.951446198236615e-03, 1.002603913219544e+00, 1.651752856806430e-01, 1.304719917022488e-03
345, 9.822391712283960e-01, 2.491969834783358e-03, 1.002733438893846e+00, 1.733991183110125e-01, 1.244944153879750e-03
346, 9.853368952912690e-01, 2.061293361548887e-03, 1.002867063958426e+00, 1.818832290655113e-01, 1.187008988549783e-03
347, 9.882276487598231e-01, 1.657893415821940e-03, 1.003006461458454e+00, 1.907338427797982e-01, 1.141720284165251e-03
348, 9.909241437994040e-01, 1.280289614408968e-03, 1.003152562557908e+00, 2.000100808345277e-01, 1.133300386101986e-03
349, 9.934384637945120e-01, 9.270488596823588e-04, 1.003302737217394e+00, 2.095449570017152e-01, 1.200758080193030e-03
350, 9.957820729231800e-01, 5.967886532421940e-04, 1.003448680331281e+00, 2.188111642507831e-01, 1.384520184320150e-03
351, 9.979658291431760e-01, 2.881794857138566e-04, 1.003578169215723e+00, 2.270326610226903e-01, 1.619425585856532e-03
166, 1.535114573767690e-01, -5.345875993105773e-02, 9.935770571001795e-01, -4.079570628232725e-01, 4.819393741658442e-03
167, 1.430129884302270e-01, -5.238521407848482e-02, 9.935368506993372e-01, -4.105098440612752e-01, 4.897877740939735e-03
168, 1.330574640378200e-01, -5.125402533974487e-02, 9.935105237384373e-01, -4.121813931288570e-01, 4.975925063724716e-03
169, 1.236319622083540e-01, -5.007222893918521e-02, 9.934966284254579e-01, -4.130636331087286e-01, 5.053238522538718e-03
170, 1.147220644565820e-01, -4.884662296676224e-02, 9.934948453975493e-01, -4.131768409586402e-01, 5.130045233189270e-03
171, 1.063121233630630e-01, -4.758371320803999e-02, 9.935075331850849e-01, -4.123712690771963e-01, 5.206249878595289e-03
172, 9.838551560343448e-02, -4.628967359474944e-02, 9.935341757729453e-01, -4.106796802506144e-01, 5.281485238509383e-03
173, 9.092487458410546e-02, -4.497031464160225e-02, 9.935747052144878e-01, -4.081063885411197e-01, 5.355729689288801e-03
174, 8.391230598462590e-02, -4.363106518129783e-02, 9.936307522855553e-01, -4.045478528734471e-01, 5.428962847260667e-03
175, 7.732958126675092e-02, -4.227696117578635e-02, 9.937047258900551e-01, -3.998511273342737e-01, 5.500509378301930e-03
176, 7.115831019240228e-02, -4.091264364521334e-02, 9.937944058734630e-01, -3.941571737778287e-01, 5.569849498501350e-03
