"Global_Index", "x_coord", "y_coord", "Pressure", "Pressure_Coefficient", "Skin_Friction_Coefficient"
634, 2.502882139928040e-01, -5.894787592728060e-02, 9.942285305741770e-01, -3.665937667650697e-01, 4.218187266697922e-03
635, 2.465472876645170e-01, -5.885480828859331e-02, 9.941974834402729e-01, -3.685650086385952e-01, 4.237336080905009e-03
636, 2.428410589052540e-01, -5.875464540499853e-02, 9.941669903678528e-01, -3.705010720894943e-01, 4.256488758636116e-03
637, 2.391697119734630e-01, -5.864747037356473e-02, 9.941371314219856e-01, -3.723968736335165e-01, 4.275673212701677e-03
638, 2.355334157097330e-01, -5.853336642986963e-02, 9.941078245463542e-01, -3.742576231830644e-01, 4.294870615824280e-03
639, 2.319323238039210e-01, -5.841242042701619e-02, 9.940791525670600e-01, -3.760780619506488e-01, 4.314077760449658e-03
640, 2.283665749856950e-01, -5.828472232042683e-02, 9.940510335396926e-01, -3.778633927435227e-01, 4.333306327322393e-03
641, 2.248362931445200e-01, -5.815036315639741e-02, 9.940235613690204e-01, -3.796076533684480e-01, 4.352540117941688e-03
642, 2.213415876361850e-01, -5.800943743150688e-02, 9.939966476876019e-01, -3.813164544431851e-01, 4.371785729743074e-03
643, 2.178825534398780e-01, -5.786204151890399e-02, 9.939703935521103e-01, -3.829833796864017e-01, 4.391049274354473e-03
644, 2.144592713403360e-01, -5.770827281676661e-02, 9.939447183455276e-01, -3.846135476266547e-01, 4.410308229045075e-03
645, 2.110718083103010e-01, -5.754823251803503e-02, 9.939196976158542e-01, -3.862021615769994e-01, 4.429586639516286e-03
646, 2.077202175558890e-01, -5.738202188035686e-02, 9.938952887994998e-01, -3.877519239811390e-01, 4.448869303339983e-03
647, 2.044045388749010e-01, -5.720974424939134e-02, 9.938715334571874e-01, -3.892601960693418e-01, 4.468154722184586e-03
648, 2.011247989315330e-01, -5.703150512358030e-02, 9.938484168229140e-01, -3.907279153633458e-01, 4.487443136094567e-03
649, 1.978810114568130e-01, -5.684741113694670e-02, 9.938259497531631e-01, -3.921543925642775e-01, 4.506738645184937e-03
650, 1.946731775047080e-01, -5.665756992593487e-02, 9.938041483592512e-01, -3.935386047338439e-01, 4.526036719646345e-03
651, 1.915012857298410e-01, -5.646209020867950e-02, 9.937830046737816e-01, -3.948810577373067e-01, 4.545333158855933e-03
652, 1.883653126994450e-01, -5.626108209808330e-02, 9.937625430220497e-01, -3.961802071151497e-01, 4.564628315775560e-03
653, 1.852652231381830e-01, -5.605465658900365e-02, 9.937427520124245e-01, -3.974367761438111e-01, 4.583920752446374e-03
654, 1.822009702078310e-01, -5.584292546583180e-02, 9.937236535183200e-01, -3.986493760384158e-01, 4.603209346984354e-03
655, 1.791724957913090e-01, -5.562600120070044e-02, 9.937052375551534e-01, -3.998186407392259e-01, 4.622492800231312e-03
656, 1.761797307773510e-01, -5.540399685008031e-02, 9.936875259450921e-01, -4.009431847151088e-01, 4.641770373051111e-03
657, 1.732225953461100e-01, -5.517702593424122e-02, 9.936705103466070e-01, -4.020235375856997e-01, 4.661041093199431e-03
658, 1.703009992540400e-01, -5.494520230997531e-02, 9.936542148951720e-01, -4.030581669436262e-01, 4.680301103285379e-03
659, 1.674148421564700e-01, -5.470864028692158e-02, 9.936386258147093e-01, -4.040479474584008e-01, 4.699548908142509e-03
660, 1.645640139002550e-01, -5.446745448005801e-02, 9.936237645589062e-01, -4.049915169944062e-01, 4.718787058937142e-03
661, 1.617483947472790e-01, -5.422175928085671e-02, 9.936096224601002e-01, -4.058894258781068e-01, 4.738014633441592e-03
662, 1.589678556741450e-01, -5.397166889254316e-02, 9.935962254256095e-01, -4.067400292043465e-01, 4.757227394533952e-03
663, 1.562222587030760e-01, -5.371729749023721e-02, 9.935835576935632e-01, -4.075443277244436e-01, 4.776415839585850e-03
664, 1.535114573767690e-01, -5.345875993105773e-02, 9.935716414913437e-01, -4.083009101793993e-01, 4.795597085285598e-03
665, 1.508352966199000e-01, -5.319616956015087e-02, 9.935604795765082e-01, -4.090096014866375e-01, 4.814757322168486e-03
666, 1.481936133152850e-01, -5.292963965893575e-02, 9.935500799540287e-01, -4.096698933951844e-01, 4.833890443496562e-03
667, 1.455862367908010e-01, -5.265928398977280e-02, 9.935404734521562e-01, -4.102798285604565e-01, 4.853008860587569e-03
668, 1.430129884302270e-01, -5.238521407848482e-02, 9.935316230929799e-01, -4.108417547806980e-01, 4.872078569033876e-03
669, 1.404736829258190e-01, -5.210754284530573e-02, 9.935235464586820e-01, -4.113545557295512e-01, 4.891138892425564e-03
670, 1.379681274460720e-01, -5.182638046035423e-02, 9.935162616178282e-01, -4.118170841992410e-01, 4.910152785318382e-03
671, 1.354961231018820e-01, -5.154183835834542e-02, 9.935097423703729e-01, -4.122310036807456e-01, 4.929153081000988e-03
672, 1.330574640378200e-01, -5.125402533974487e-02, 9.935040284232899e-01, -4.125937931024032e-01, 4.948117963430136e-03
673, 1.306519387026920e-01, -5.096305057057045e-02, 9.934991056464909e-01, -4.129063496105218e-01, 4.967046073284557e-03
674, 1.282793296795610e-01, -5.066902214524847e-02, 9.934949617583847e-01, -4.131694529868076e-01, 4.985957559548541e-03
675, 1.259394136011340e-01, -5.037204621840876e-02, 9.934916608634484e-01, -4.133790331154787e-01, 5.004826427770119e-03
676, 1.236319622083540e-01, -5.007222893918521e-02, 9.934891473801829e-01, -4.135386189721540e-01, 5.023650294049013e-03
677, 1.213567421649040e-01, -4.976967521460428e-02, 9.934874341575360e-01, -4.136473947525720e-01, 5.042455542347294e-03
678, 1.191135151250060e-01, -4.946448834516833e-02, 9.934866058695970e-01, -4.136999843369685e-01, 5.061219347419000e-03
679, 1.169020382224260e-01, -4.915677051539393e-02, 9.934865620051166e-01, -4.137027693766683e-01, 5.079927958674336e-03
680, 1.147220644565820e-01, -4.884662296676224e-02, 9.934873472093204e-01, -4.136529152609706e-01, 5.098614524524604e-03
681, 1.125733427526400e-01, -4.853414559436801e-02, 9.934890577859773e-01, -4.135443074795141e-01, 5.117246963171527e-03
682, 1.104556182112870e-01, -4.821943694639060e-02, 9.934915475357458e-01, -4.133862285079299e-01, 5.135816708431259e-03
683, 1.083686323541210e-01, -4.790259421259185e-02, 9.934948967383286e-01, -4.131735812344465e-01, 5.154365442565071e-03
684, 1.063121233630630e-01, -4.758371320803999e-02, 9.934992181192047e-01, -4.128992085029473e-01, 5.172846106096202e-03
685, 1.042858263122870e-01, -4.726288835879747e-02, 9.935043161661098e-01, -4.125755237607900e-01, 5.191252165756681e-03
686, 1.022894733944730e-01, -4.694021267187087e-02, 9.935103073991095e-01, -4.121951289262924e-01, 5.209639095621722e-03
687, 1.003227941358030e-01, -4.661577771795830e-02, 9.935173221752001e-01, -4.117497473846078e-01, 5.227944042654558e-03
688, 9.838551560343448e-02, -4.628967359474944e-02, 9.935251104604604e-01, -4.112552542672838e-01, 5.246161367453684e-03
689, 9.647736259798712e-02, -4.596198890512685e-02, 9.935338272498349e-01, -4.107018086490627e-01, 5.264361581570449e-03
690, 9.459805783183216e-02, -4.563281073024860e-02, 9.935436291149282e-01, -4.100794694994860e-01, 5.282461020371747e-03
691, 9.274732208784030e-02, -4.530222460908296e-02, 9.935541973487120e-01, -4.094084721369568e-01, 5.300454621512087e-03
692, 9.092487458410546e-02, -4.497031464160225e-02, 9.935657375391855e-01, -4.086757633864424e-01, 5.318422257591051e-03
693, 8.913043347693729e-02, -4.463716358092769e-02, 9.935783783559354e-01, -4.078731737699607e-01, 5.336288579389240e-03
694, 8.736371512041483e-02, -4.430285233482104e-02, 9.935918768609047e-01, -4.070161278890905e-01, 5.354033638641969e-03
695, 8.562443445911169e-02, -4.396746020048101e-02, 9.936063472107597e-01, -4.060973777188855e-01, 5.371713255166058e-03
696, 8.391230598462590e-02, -4.363106518129783e-02, 9.936218781911528e-01, -4.051112860885822e-01, 5.389312660766101e-03
697, 8.222704401389125e-02, -4.329374383296894e-02, 9.936384893155790e-01, -4.040566140490833e-01, 5.406770819003146e-03
698, 8.056836063629794e-02, -4.295557070633568e-02, 9.936559929207269e-01, -4.029452767027157e-01, 5.424101253630152e-03
699, 7.893596882861914e-02, -4.261661923514180e-02, 9.936745619000694e-01, -4.017662967124340e-01, 5.441383987468388e-03
700, 7.732958126675092e-02, -4.227696117578635e-02, 9.936944018711196e-01, -4.005066190293224e-01, 5.458490762539232e-03
701, 7.574890880997440e-02, -4.193666660251671e-02, 9.937150547102347e-01, -3.991953307990901e-01, 5.475432874227888e-03
702, 7.419366526021026e-02, -4.159580435127203e-02, 9.937368447686157e-01, -3.978118383440434e-01, 5.492311541772385e-03
703, 7.266356087280386e-02, -4.125444146327630e-02, 9.937598787557402e-01, -3.963493664754840e-01, 5.509049065609998e-03
704, 7.115831019240228e-02, -4.091264364521334e-02, 9.937839831770455e-01, -3.948189306948145e-01, 5.525573138533951e-03
705, 6.967762385787953e-02, -4.057047506653848e-02, 9.938091453634966e-01, -3.932213353832779e-01, 5.541968492950719e-03
706, 6.822121738866474e-02, -4.022799830314446e-02, 9.938354881230274e-01, -3.915487832304268e-01, 5.558257152155080e-03
707, 6.678880288788966e-02, -3.988527469569245e-02, 9.938632756907992e-01, -3.897844974408097e-01, 5.574320933942310e-03
708, 6.538009589133059e-02, -3.954236389493454e-02, 9.938919347994107e-01, -3.879648758574659e-01, 5.590158582856163e-03
709, 6.399481288948165e-02, -3.919932408950601e-02, 9.939218883693967e-01, -3.860630664472907e-01, 5.605863206348577e-03
710, 6.263266819094854e-02, -3.885621247281111e-02, 9.939531006779269e-01, -3.840813373210482e-01, 5.621452015002792e-03
711, 6.129338107792402e-02, -3.851308423501903e-02, 9.939858322381817e-01, -3.820031479989855e-01, 5.636762689124867e-03
712, 5.997667081241873e-02, -3.816999333835450e-02, 9.940195410592760e-01, -3.798629105183366e-01, 5.651764070864354e-03
713, 5.868225520965439e-02, -3.782699296004394e-02, 9.940546109467905e-01, -3.776362563291991e-01, 5.666640109655154e-03
714, 5.740985659663589e-02, -3.748413424723367e-02, 9.940910444337722e-01, -3.753230246035708e-01, 5.681344371966810e-03
715, 5.615919869239251e-02, -3.714146698344607e-02, 9.941290890858955e-01, -3.729074969235988e-01, 5.695716766994005e-03
716, 5.493000569505260e-02, -3.679903989277603e-02, 9.941682143811640e-01, -3.704233571448509e-01, 5.709736279811160e-03
717, 5.372200179772657e-02, -3.645690089134281e-02, 9.942087966158638e-01, -3.678467134968866e-01, 5.723580178284441e-03
718, 5.253491496401699e-02, -3.611509603963944e-02, 9.942508354773325e-01, -3.651775858312425e-01, 5.737214362516367e-03
719, 5.136847484256146e-02, -3.577367015676265e-02, 9.942946252652894e-01, -3.623972884962258e-01, 5.750474621222633e-03
720, 5.022241269090757e-02, -3.543266689255811e-02, 9.943395730100453e-01, -3.595434702707862e-01, 5.763348607619511e-03
721, 4.909646147074136e-02, -3.509212875079305e-02, 9.943861055786350e-01, -3.565890285509758e-01, 5.775984230048351e-03
722, 4.799035594034239e-02, -3.475209710972450e-02, 9.944342142682504e-01, -3.535345158947316e-01, 5.788354199052774e-03
723, 4.690383274094209e-02, -3.441261224262714e-02, 9.944842144207536e-01, -3.503599106444880e-01, 5.800291562420472e-03
724, 4.583663031323112e-02, -3.407371339454954e-02, 9.945355087589972e-01, -3.471031350679469e-01, 5.811771311382971e-03
725, 4.478848941955128e-02, -3.373543863711300e-02, 9.945884768347044e-01, -3.437400907007414e-01, 5.822962263666477e-03
726, 4.375915307868891e-02, -3.339782492585255e-02, 9.946431687961056e-01, -3.402675935358760e-01, 5.833787475731095e-03
727, 4.274836641004671e-02, -3.306090820541171e-02, 9.946996082243191e-01, -3.366841463630721e-01, 5.844255490280504e-03
728, 4.175587666437301e-02, -3.272472343659386e-02, 9.947580568770916e-01, -3.329731296826882e-01, 5.854203466447865e-03
729, 4.078143322856695e-02, -3.238930464309767e-02, 9.948179715838098e-01, -3.291690304351498e-01, 5.863623734481711e-03
730, 3.982478786745394e-02, -3.205468485255335e-02, 9.948797488511012e-01, -3.252466736568117e-01, 5.872692986335570e-03
731, 3.888569516741888e-02, -3.172089594655491e-02, 9.949434231883268e-01, -3.212038682823825e-01, 5.881330616102366e-03
732, 3.796391187205995e-02, -3.138796897436771e-02, 9.950090923078301e-01, -3.170344103684216e-01, 5.889513479751708e-03
733, 3.705919704324044e-02, -3.105593412366710e-02, 9.950768666149902e-01, -3.127312900663750e-01, 5.897088968566330e-03
734, 3.617131196629707e-02, -3.072482080198838e-02, 9.951463843201469e-01, -3.083174780932775e-01, 5.904063651965215e-03
735, 3.530001996882133e-02, -3.039465775424876e-02, 9.952179676995926e-01, -3.037725125113470e-01, 5.910546814993796e-03
736, 3.444508613221498e-02, -3.006547322461565e-02, 9.952916356020224e-01, -2.990951965809011e-01, 5.916430855873343e-03
737, 3.360627685192180e-02, -2.973729518255648e-02, 9.953673308022565e-01, -2.942891636379839e-01, 5.921876294354938e-03
738, 3.278336293847259e-02, -2.941015003402116e-02, 9.954455295486907e-01, -2.893241757616664e-01, 5.926895673512456e-03
739, 3.197612408034163e-02, -2.908406071885875e-02, 9.955256451450544e-01, -2.842374834195561e-01, 5.931014757634402e-03
740, 3.118433505755526e-02, -2.875905263829194e-02, 9.956080647073993e-01, -2.790045078736117e-01, 5.934393174543484e-03
741, 3.040777028278653e-02, -2.843515176541118e-02, 9.956926549472805e-01, -2.736337118619568e-01, 5.936976499751399e-03
742, 2.964620379885614e-02, -2.811238465852158e-02, 9.957795072084483e-01, -2.681192957953065e-01, 5.939617420244319e-03
743, 2.889943054832020e-02, -2.779076947750923e-02, 9.958690731858888e-01, -2.624325806956398e-01, 5.941514850899750e-03
744, 2.816723852735188e-02, -2.747032780714164e-02, 9.959611915329623e-01, -2.565838107695025e-01, 5.941938062511450e-03
745, 2.744940508814418e-02, -2.715108621090662e-02, 9.960552312926962e-01, -2.506130466810551e-01, 5.941626542293604e-03
746, 2.674571619361430e-02, -2.683306811876611e-02, 9.961519078054808e-01, -2.444748701016680e-01, 5.941866221145837e-03
747, 2.605598767811225e-02, -2.651628512984073e-02, 9.962514623362667e-01, -2.381539626584734e-01, 5.940154808904195e-03
748, 2.537999933038067e-02, -2.620076435790242e-02, 9.963531311177701e-01, -2.316988173961508e-01, 5.937392855879615e-03
749, 2.471753664994581e-02, -2.588653098064324e-02, 9.964577410992415e-01, -2.250569297262017e-01, 5.935822302819872e-03
750, 2.406843395287114e-02, -2.557359101259573e-02, 9.965655072937294e-01, -2.182146480591989e-01, 5.931221044764294e-03
751, 2.343246510563999e-02, -2.526197554405533e-02, 9.966751228458636e-01, -2.112549471404656e-01, 5.926336121943076e-03
752, 2.280943840223927e-02, -2.495170224279449e-02, 9.967880796480705e-01, -2.040831038683148e-01, 5.921955419751263e-03
753, 2.219918838968113e-02, -2.464277932225102e-02, 9.969035540387959e-01, -1.967514140891276e-01, 5.913807474944357e-03
754, 2.160147523998461e-02, -2.433524454266298e-02, 9.970218900163197e-01, -1.892380366946212e-01, 5.908685908406893e-03
755, 2.101616953630133e-02, -2.402909351696114e-02, 9.971434005118835e-01, -1.815231030821320e-01, 5.899253722122091e-03
756, 2.044303684999827e-02, -2.372436301259453e-02, 9.972676452846280e-01, -1.736345649852872e-01, 5.891661397514903e-03
757, 1.988192425096831e-02, -2.342105908294098e-02, 9.973954201427194e-01, -1.655218950225289e-01, 5.882016108753654e-03
758, 1.933264577364453e-02, -2.311920147574102e-02, 9.975254580717251e-01, -1.572655383619050e-01, 5.870761494862712e-03
759, 1.879500054819326e-02, -2.281881526904920e-02, 9.976589558474486e-01, -1.487895094201890e-01, 5.861414960699309e-03
760, 1.826885694347390e-02, -2.251990184115951e-02, 9.977952958597960e-01, -1.401330214427085e-01, 5.847347491907014e-03
761, 1.775398027235262e-02, -2.222249935188969e-02, 9.979348699431370e-01, -1.312711961164037e-01, 5.837571170572409e-03
762, 1.725027025628878e-02, -2.192659997446520e-02, 9.980776730482469e-01, -1.222043540261948e-01, 5.821438518543854e-03
763, 1.675748031025622e-02, -2.163224652966647e-02, 9.982236161163039e-01, -1.129381496869052e-01, 5.810497373385118e-03
764, 1.627551728550267e-02, -2.133943095109168e-02, 9.983732877623865e-01, -1.034352108021540e-01, 5.793241481616270e-03
963, 1.350326958812230e-03, 6.414562789196492e-03, 1.011972291670945e+00, 7.599915398143636e-01, 4.033532290404669e-03
964, 1.419377890650849e-03, 6.573860295790221e-03, 1.011800608635987e+00, 7.490910557784447e-01, 4.101279721600266e-03
965, 1.491254536145824e-03, 6.735462570784941e-03, 1.011625509589833e+00, 7.379736826624745e-01, 4.160904094756715e-03
966, 1.566020840352297e-03, 6.899352653634311e-03, 1.011445807578412e+00, 7.265640584838690e-01, 4.225863650777052e-03
967, 1.643788304863609e-03, 7.065564046144683e-03, 1.011262362453472e+00, 7.149167768735173e-01, 4.283269675010465e-03
968, 1.724623063873454e-03, 7.234076671464374e-03, 1.011074816458488e+00, 7.030091231858309e-01, 4.344923877400873e-03
969, 1.808640789416878e-03, 7.404923802052314e-03, 1.010883503686509e+00, 6.908623096271301e-01, 4.399645020069771e-03
970, 1.895908408013832e-03, 7.578080750896827e-03, 1.010688236299167e+00, 6.784644099804077e-01, 4.458189770326191e-03
971, 1.986547410483633e-03, 7.753582548572401e-03, 1.010489510545830e+00, 6.658469320664484e-01, 4.509644169604797e-03
972, 2.080623294307195e-03, 7.931397465764227e-03, 1.010286894561812e+00, 6.529824559710476e-01, 4.564746250939338e-03
973, 2.178265382436062e-03, 8.111564766018656e-03, 1.010081027719367e+00, 6.399115766604949e-01, 4.612024475427815e-03
974, 2.279535711904775e-03, 8.294043467610231e-03, 1.009871654937325e+00, 6.266180985438724e-01, 4.663105548369450e-03
975, 2.384572582067802e-03, 8.478878585414133e-03, 1.009659119493995e+00, 6.131238170171932e-01, 4.707028938280530e-03
976, 2.493434235350970e-03, 8.666019672416576e-03, 1.009443551649441e+00, 5.994370025407565e-01, 4.754466601130333e-03
977, 2.606266448751237e-03, 8.855515947879556e-03, 1.009224959403808e+00, 5.855581630591294e-01, 4.795134770008896e-03
978, 2.723127129568278e-03, 9.047311768115573e-03, 1.009003856333067e+00, 5.715199064923258e-01, 4.838297726014874e-03
979, 2.844162987096931e-03, 9.241453088240969e-03, 1.008779962453471e+00, 5.573044561370823e-01, 4.875847886724590e-03
980, 2.969441608345475e-03, 9.437891077119516e-03, 1.008553900513760e+00, 5.429513515012576e-01, 4.914172758764966e-03
981, 3.099095948086950e-03, 9.636651385496846e-03, 1.008325420944252e+00, 5.284447469286538e-01, 4.949102794961442e-03
982, 3.233221989326191e-03, 9.837714251364734e-03, 1.008095144436240e+00, 5.138240512959087e-01, 4.982372984269419e-03
983, 3.371916266201025e-03, 1.004105861351393e-02, 1.007862810290855e+00, 4.990727123334194e-01, 5.014966165530628e-03
984, 3.515319859166580e-03, 1.024671366625151e-02, 1.007629046746074e+00, 4.842306180712116e-01, 5.043870891577604e-03
985, 3.663491820391209e-03, 1.045461061206151e-02, 1.007393654342044e+00, 4.692851044219758e-01, 5.073500287948064e-03
986, 3.816605685361517e-03, 1.066481302408110e-02, 1.007157201797269e+00, 4.542722804105133e-01, 5.099151287217960e-03
987, 3.974707566981052e-03, 1.087723337941852e-02, 1.006919563476483e+00, 4.391841692136970e-01, 5.125247366980248e-03
988, 4.137967065029325e-03, 1.109192723945677e-02, 1.006681207383277e+00, 4.240504852740378e-01, 5.148547387116966e-03
989, 4.306464753752678e-03, 1.130884403686555e-02, 1.006442207109872e+00, 4.088759011023066e-01, 5.170944170608218e-03
990, 4.480308044734702e-03, 1.152796344134511e-02, 1.006202775911392e+00, 3.936739566738330e-01, 5.192320764180266e-03
991, 4.659654985125359e-03, 1.174932230325202e-02, 1.005963222677915e+00, 3.784642640102048e-01, 5.212022922504121e-03
992, 4.844550253940727e-03, 1.197282395742617e-02, 1.005723566502766e+00, 3.632480353830589e-01, 5.231123604131457e-03
993, 5.035191972648486e-03, 1.219854927283686e-02, 1.005484288270261e+00, 3.480558030568082e-01, 5.249152029998849e-03
994, 5.231634423732365e-03, 1.242640962318125e-02, 1.005245198346898e+00, 3.328755268377986e-01, 5.266475407865230e-03
995, 5.434015639162694e-03, 1.265641347651858e-02, 1.005006742093930e+00, 3.177354835634071e-01, 5.283016862636860e-03
996, 5.642485232466586e-03, 1.288858025362295e-02, 1.004769114188150e+00, 3.026480336352406e-01, 5.299653849500606e-03
