"Global_Index", "x_coord", "y_coord", "Pressure", "Pressure_Coefficient", "Skin_Friction_Coefficient"
192, 1.000000000000000e+00, 5.352202629500000e-08, 1.001747657226647e+00, 1.108099560862931e-01, 6.432520113745862e-05
193, 9.990009933457160e-01, -1.415916575292282e-04, 1.002021999001257e+00, 1.282284397196005e-01, 4.506159639604006e-03
194, 9.979658291430820e-01, -2.881794857271442e-04, 1.002013234774322e+00, 1.276719821999835e-01, 3.782088086844908e-03
195, 9.968932772885490e-01, -4.398586638588618e-04, 1.001952846564969e+00, 1.238378193651130e-01, 3.117843564110040e-03
196, 9.957820729228830e-01, -5.967886532841323e-04, 1.001924392384640e+00, 1.220312090701120e-01, 2.761389310388101e-03
197, 9.946309145593470e-01, -7.591305470417242e-04, 1.001911004938839e+00, 1.211812145481036e-01, 2.613535427177127e-03
198, 9.934384637941019e-01, -9.270488597400344e-04, 1.001908746556057e+00, 1.210378255087484e-01, 2.575877937388521e-03
199, 9.922033447911550e-01, -1.100711481734587e-03, 1.001912008864436e+00, 1.212449557031029e-01, 2.581101672058120e-03
200, 9.909241437988340e-01, -1.280289614488857e-03, 1.001917373147849e+00, 1.215855443100212e-01, 2.595410166268313e-03
201, 9.895994087262190e-01, -1.465957716968706e-03, 1.001923183028113e+00, 1.219544247127277e-01, 2.606673678128818e-03
202, 9.882276487590520e-01, -1.657893415929766e-03, 1.001929015741962e+00, 1.223247548633199e-01, 2.613068631317576e-03
203, 9.868073340184690e-01, -1.856277410554656e-03, 1.001934994725963e+00, 1.227043719855200e-01, 2.616035595243488e-03
204, 9.853368952903420e-01, -2.061293361678059e-03, 1.001941351849066e+00, 1.231079978820221e-01, 2.617243571042606e-03
205, 9.838147238361660e-01, -2.273127772284692e-03, 1.001948246601653e+00, 1.235457589020362e-01, 2.617775353481711e-03
206, 9.822391712272380e-01, -2.491969834944034e-03, 1.001955731322334e+00, 1.240209781239982e-01, 2.618149449059899e-03
207, 9.806085493252490e-01, -2.718011281798061e-03, 1.001963790549568e+00, 1.245326738651215e-01, 2.618545128087826e-03
208, 9.789211302792580e-01, -2.951446198418808e-03, 1.001972375525337e+00, 1.250777503855890e-01, 2.618980243669951e-03
209, 9.771751466664890e-01, -3.192470825092900e-03, 1.001981428705560e+00, 1.256525541017216e-01, 2.619421651643893e-03
210, 9.753687917200690e-01, -3.441283350046040e-03, 1.001990901063611e+00, 1.262539722193922e-01, 2.619841482676885e-03
211, 9.735002196451090e-01, -3.698083649881599e-03, 1.002000743483292e+00, 1.268788862572272e-01, 2.620221984311134e-03
212, 9.715675460812661e-01, -3.963073044857662e-03, 1.002010914909376e+00, 1.275246895404498e-01, 2.620563350502867e-03
213, 9.695688486768370e-01, -4.236453999195831e-03, 1.002021374186934e+00, 1.281887690639975e-01, 2.620869585893491e-03
214, 9.675021678017420e-01, -4.518429822299970e-03, 1.002032084419375e+00, 1.288687821926794e-01, 2.621148520696736e-03
215, 9.653655074033110e-01, -4.809204324888168e-03, 1.002043009673348e+00, 1.295624474494039e-01, 2.621405374104696e-03
216, 9.631568360186920e-01, -5.108981458577545e-03, 1.002054116754010e+00, 1.302676572301218e-01, 2.621642446498158e-03
217, 9.608740879536010e-01, -5.417964935352300e-03, 1.002065377534752e+00, 1.309826257227356e-01, 2.621862852326989e-03
218, 9.585151646336830e-01, -5.736357801147233e-03, 1.002076770561229e+00, 1.317059907498486e-01, 2.622066616342727e-03
219, 9.560779361314430e-01, -6.064361994812915e-03, 1.002088276605885e+00, 1.324365315171237e-01, 2.622252559154419e-03
220, 9.535602429161220e-01, -6.402177880090121e-03, 1.002099887795776e+00, 1.331737481563924e-01, 2.622420478340875e-03
221, 9.509598977819530e-01, -6.750003738418787e-03, 1.002111599191130e+00, 1.339173270319667e-01, 2.622568573901699e-03
222, 9.482746880048850e-01, -7.108035234927211e-03, 1.002123411031838e+00, 1.346672833751112e-01, 2.622695709777526e-03
223, 9.455023777253990e-01, -7.476464858421941e-03, 1.002135334570866e+00, 1.354243316580544e-01, 2.622800271825525e-03
224, 9.426407105822270e-01, -7.855481327107042e-03, 1.002147382682805e+00, 1.361892893132116e-01, 2.622879570335431e-03
225, 9.396874125684220e-01, -8.245268966510694e-03, 1.002159572707817e+00, 1.369632573006236e-01, 2.622932520525404e-03
226, 9.366401951685740e-01, -8.646007049145999e-03, 1.002171932159166e+00, 1.377479824900164e-01, 2.622956282002816e-03
227, 9.334967587575570e-01, -9.057869113770373e-03, 1.002184485018555e+00, 1.385449875255693e-01, 2.622990004816451e-03
228, 9.302547962764830e-01, -9.481022247350132e-03, 1.002196999894070e+00, 1.393395808923163e-01, 2.622969976274582e-03
229, 9.269119971968330e-01, -9.915626340390895e-03, 1.002209508859977e+00, 1.401337990467755e-01, 2.622958827122408e-03
230, 9.234660517702999e-01, -1.036183331256595e-02, 1.002222431071484e+00, 1.409542549542194e-01, 2.622849356340772e-03
231, 9.199146555999830e-01, -1.081978630643636e-02, 1.002235683516879e+00, 1.417956780424341e-01, 2.622714196653238e-03
232, 9.162555145009680e-01, -1.128961886009035e-02, 1.002249247793829e+00, 1.426568999120683e-01, 2.622577894771850e-03
233, 9.124863496792260e-01, -1.177145404520004e-02, 1.002263226209728e+00, 1.435444162551336e-01, 2.622325684029205e-03
234, 9.086049032279730e-01, -1.226540359178139e-02, 1.002277660867502e+00, 1.444609002669197e-01, 2.622062487472921e-03
235, 9.046089439484650e-01, -1.277156697172146e-02, 1.002292585618380e+00, 1.454085012265966e-01, 2.621769165221055e-03
236, 9.004962734807360e-01, -1.329003047580013e-02, 1.002308032138393e+00, 1.463892303058965e-01, 2.621362909150006e-03
237, 8.962647327563030e-01, -1.382086626549480e-02, 1.002324049982631e+00, 1.474062338522874e-01, 2.620940179054951e-03
238, 8.919122087664410e-01, -1.436413140679768e-02, 1.002340672278766e+00, 1.484616152049087e-01, 2.620465361266781e-03
239, 8.874366416441960e-01, -1.491986688391289e-02, 1.002357940149165e+00, 1.495579853015153e-01, 2.619885653094662e-03
240, 8.828360320456839e-01, -1.548809659764239e-02, 1.002375908573087e+00, 1.506988348802703e-01, 2.619276079321037e-03
241, 8.781084488119389e-01, -1.606882637554761e-02, 1.002394578777146e+00, 1.518842418213066e-01, 2.618581194579611e-03
242, 8.732520369379220e-01, -1.666204293780597e-02, 1.002413993464760e+00, 1.531169174462065e-01, 2.617800551640845e-03
243, 8.682650257749110e-01, -1.726771287742553e-02, 1.002434186539746e+00, 1.543990143730764e-01, 2.616982499635028e-03
244, 8.631457374960591e-01, -1.788578165295289e-02, 1.002455187703529e+00, 1.557324184022645e-01, 2.616044056239413e-03
245, 8.578925957790550e-01, -1.851617254213506e-02, 1.002477030218021e+00, 1.571192413960330e-01, 2.615049813553458e-03
246, 8.525041346896460e-01, -1.915878563887750e-02, 1.002499743749471e+00, 1.585613669213333e-01, 2.613979993065274e-03
247, 8.469790077255021e-01, -1.981349683969546e-02, 1.002523358377420e+00, 1.600607047856504e-01, 2.612810848544526e-03
248, 8.413159970120960e-01, -2.048015683562499e-02, 1.002547904120128e+00, 1.616191609056654e-01, 2.611594982191405e-03
249, 8.355140225863250e-01, -2.115859013629627e-02, 1.002573408506315e+00, 1.632384831325108e-01, 2.610254715763270e-03
250, 8.295721517532200e-01, -2.184859409030840e-02, 1.002599901289257e+00, 1.649205605585247e-01, 2.608863302250773e-03
251, 8.234896084539240e-01, -2.254993796502777e-02, 1.002627408796661e+00, 1.666670647800553e-01, 2.607368257185233e-03
252, 8.172657826166300e-01, -2.326236201353585e-02, 1.002655958461721e+00, 1.684797375831189e-01, 2.605806779332811e-03
253, 8.109002394283870e-01, -2.398557659484225e-02, 1.002685582461558e+00, 1.703606219546274e-01, 2.604149357209672e-03
254, 8.043927284804649e-01, -2.471926132528821e-02, 1.002716297106975e+00, 1.723107534986206e-01, 2.602415409350671e-03
255, 7.977431927271550e-01, -2.546306430877410e-02, 1.002748126502689e+00, 1.743316626696039e-01, 2.600591066349125e-03
256, 7.909517772165610e-01, -2.621660130830753e-02, 1.002781099403975e+00, 1.764251751950081e-01, 2.598692761780295e-03
257, 7.840188375019090e-01, -2.697945512970244e-02, 1.002815231811655e+00, 1.785923069976617e-01, 2.596701627588655e-03
258, 7.769449477048480e-01, -2.775117492280826e-02, 1.002850565966870e+00, 1.808357400481910e-01, 2.594640690121757e-03
259, 7.697309081434870e-01, -2.853127562179953e-02, 1.002887105533435e+00, 1.831557069693138e-01, 2.592479756829783e-03
260, 7.623777524675190e-01, -2.931923744885270e-02, 1.002924878442047e+00, 1.855539811343313e-01, 2.590255529056143e-03
261, 7.548867542360230e-01, -3.011450548229472e-02, 1.002963911046895e+00, 1.880322358211210e-01, 2.587931066503177e-03
262, 7.472594328699030e-01, -3.091648930628510e-02, 1.003004223881640e+00, 1.905917747510662e-01, 2.585542210982807e-03
263, 7.394975589091980e-01, -3.172456285259752e-02, 1.003045864559552e+00, 1.932356209816282e-01, 2.583078189667014e-03
264, 7.316031585245610e-01, -3.253806414443636e-02, 1.003088900593319e+00, 1.959680610224575e-01, 2.580529433251036e-03
265, 7.235785172006580e-01, -3.335629538946504e-02, 1.003133302394716e+00, 1.987872162605544e-01, 2.577892092522960e-03
266, 7.154261825498690e-01, -3.417852304597178e-02, 1.003179104273375e+00, 2.016952650800055e-01, 2.575158694005957e-03
267, 7.071489661900900e-01, -3.500397807030536e-02, 1.003226286444358e+00, 2.046909512974280e-01, 2.572348896148621e-03
268, 6.987499446352849e-01, -3.583185629664898e-02, 1.003274798799385e+00, 2.077710934421830e-01, 2.569470445543229e-03
269, 6.902324591553850e-01, -3.666131898713342e-02, 1.003324755604001e+00, 2.109429464522102e-01, 2.566546914899516e-03
270, 6.816001145580280e-01, -3.749149362242028e-02, 1.003376212718033e+00, 2.142100569747068e-01, 2.563556287421920e-03
271, 6.728567768624369e-01, -3.832147462183642e-02, 1.003429285295676e+00, 2.175797363695049e-01, 2.560474022709149e-03
272, 6.640065698311099e-01, -3.915032464739417e-02, 1.003484011781826e+00, 2.210544255766840e-01, 2.557270937580899e-03
273, 6.550538703431200e-01, -3.997707566021776e-02, 1.003540390246815e+00, 2.246340020778513e-01, 2.553931191765128e-03
274, 6.460033025913720e-01, -4.080073056778152e-02, 1.003598290214489e+00, 2.283101816925688e-01, 2.550476253606525e-03
275, 6.368597311040070e-01, -4.162026487339388e-02, 1.003657696045694e+00, 2.320819714611295e-01, 2.546953116491834e-03
276, 6.276282525902900e-01, -4.243462858861940e-02, 1.003718845870391e+00, 2.359644907099264e-01, 2.543368110031756e-03
277, 6.183141866275500e-01, -4.324274839564234e-02, 1.003781984178291e+00, 2.399732625578987e-01, 2.539656769191371e-03
278, 6.089230652104620e-01, -4.404353001843556e-02, 1.003847039045679e+00, 2.441037204310515e-01, 2.535758283191201e-03
279, 5.994606211969700e-01, -4.483586085111709e-02, 1.003913758455732e+00, 2.483398632994613e-01, 2.531696163315059e-03
280, 5.899327756923080e-01, -4.561861289428874e-02, 1.003982176610615e+00, 2.526838627240755e-01, 2.527538707893294e-03
281, 5.803456244206100e-01, -4.639064562994082e-02, 1.004052821505253e+00, 2.571692421117742e-01, 2.523254499962242e-03
282, 5.707054231490321e-01, -4.715080946865579e-02, 1.004125673149650e+00, 2.617947322595957e-01, 2.518743586422594e-03
283, 5.610185722295000e-01, -4.789794933213104e-02, 1.004200401802343e+00, 2.665393972516883e-01, 2.514014139884010e-03
284, 5.512916003363530e-01, -4.863090808605761e-02, 1.004277078218321e+00, 2.714077294576104e-01, 2.509130368176767e-03
285, 5.415311474864990e-01, -4.934853080700029e-02, 1.004356284300349e+00, 2.764366749961513e-01, 2.504045134804299e-03
286, 5.317439474301470e-01, -5.004966851411126e-02, 1.004437886044004e+00, 2.816177256703724e-01, 2.498651726586207e-03
287, 5.219368095125050e-01, -5.073318251519467e-02, 1.004521350890547e+00, 2.869170683079366e-01, 2.493018572739546e-03
288, 5.121166001065770e-01, -5.139794887290158e-02, 1.004607561323424e+00, 2.923907334696845e-01, 2.487154893951740e-03
289, 5.022902237254860e-01, -5.204286235180954e-02, 1.004696459893224e+00, 2.980350735825503e-01, 2.480915535472589e-03
290, 4.924646039207970e-01, -5.266684144175821e-02, 1.004787359462910e+00, 3.038064610028473e-01, 2.474364874915518e-03
291, 4.826466640805560e-01, -5.326883253102981e-02, 1.004881285960401e+00, 3.097700338550222e-01, 2.467500359262583e-03
292, 4.728433082391680e-01, -5.384781416072871e-02, 1.004977966846559e+00, 3.159084881082622e-01, 2.460195135273316e-03
293, 4.630614020053360e-01, -5.440280211021307e-02, 1.005077109608195e+00, 3.222032515410599e-01, 2.452501111692601e-03
294, 4.533077537294870e-01, -5.493285287912920e-02, 1.005179499386859e+00, 3.287041742912463e-01, 2.444362672832203e-03
295, 4.435890960039310e-01, -5.543706858920638e-02, 1.005284440732466e+00, 3.353671009034879e-01, 2.435740683581190e-03
296, 4.339120676130220e-01, -5.591460064650605e-02, 1.005392633455439e+00, 3.422364636792612e-01, 2.426640753604291e-03
297, 4.242831960256030e-01, -5.636465361576352e-02, 1.005503882305018e+00, 3.492998657745788e-01, 2.416964905622847e-03
298, 4.147088805266780e-01, -5.678648875377961e-02, 1.005618120149997e+00, 3.565530449008226e-01, 2.406729713974219e-03
299, 4.051953760710730e-01, -5.717942777353959e-02, 1.005735798272286e+00, 3.640246538090769e-01, 2.395866034872339e-03
300, 3.957487779587870e-01, -5.754285488135374e-02, 1.005856389763891e+00, 3.716812381037030e-01, 2.384358098243583e-03
301, 3.863750073740760e-01, -5.787622033036236e-02, 1.005980629934100e+00, 3.795694839767530e-01, 2.372159734133931e-03
302, 3.770797978812900e-01, -5.817904262446177e-02, 1.006107832690998e+00, 3.876458301413047e-01, 2.359224157693987e-03
303, 3.678686829301750e-01, -5.845090990697710e-02, 1.006238716179114e+00, 3.959558729659722e-01, 2.345524026699267e-03
304, 3.587469844042950e-01, -5.869148183384367e-02, 1.006372678971789e+00, 4.044614267227704e-01, 2.330995917821683e-03
305, 3.497198022648570e-01, -5.890049075727950e-02, 1.006510169783513e+00, 4.131909811522362e-01, 2.315631702610989e-03
306, 3.407920053178110e-01, -5.907774237985596e-02, 1.006650899910526e+00, 4.221262059009028e-01, 2.299359235939028e-03
307, 3.319682231339110e-01, -5.922311480334862e-02, 1.006794824650436e+00, 4.312642627283892e-01, 2.282182922786735e-03
308, 3.232528390902350e-01, -5.933656107664884e-02, 1.006942193007526e+00, 4.406209613925697e-01, 2.264035905049873e-03
309, 3.146499846177870e-01, -5.941810610016426e-02, 1.007092481354559e+00, 4.501630557994087e-01, 2.244907622950124e-03
310, 3.061635345664540e-01, -5.946784792894075e-02, 1.007246221120929e+00, 4.599242874168536e-01, 2.224809056882464e-03
311, 2.977971037424850e-01, -5.948595237681027e-02, 1.007403196684114e+00, 4.698909659587643e-01, 2.203692820633815e-03
312, 2.895540445181870e-01, -5.947265120547269e-02, 1.007563560350959e+00, 4.800727616779347e-01, 2.181587361114208e-03
313, 2.814374455823750e-01, -5.942825142657324e-02, 1.007727883418011e+00, 4.905059472840367e-01, 2.158400840840753e-03
314, 2.734501317315010e-01, -5.935311774455410e-02, 1.007895917583409e+00, 5.011747576173332e-01, 2.134000982260155e-03
315, 2.655946646872880e-01, -5.924767842335273e-02, 1.008067709822527e+00, 5.120821752340518e-01, 2.108372264596290e-03
316, 2.578733448481230e-01, -5.911241796041434e-02, 1.008243401982999e+00, 5.232372063117134e-01, 2.081450131965670e-03
317, 2.502882139928040e-01, -5.894787592728060e-02, 1.008422841703173e+00, 5.346301771177625e-01, 2.053144018449886e-03
318, 2.428410589052540e-01, -5.875464540499853e-02, 1.008605621005322e+00, 5.462351843665413e-01, 2.023441091732471e-03
319, 2.355334157097330e-01, -5.853336642986963e-02, 1.008791739839534e+00, 5.580522248889664e-01, 1.992322545626351e-03
320, 2.283665749856950e-01, -5.828472232042683e-02, 1.008981018608472e+00, 5.700698957068665e-01, 1.959754791600227e-03
321, 2.213415876361850e-01, -5.800943743150688e-02, 1.009173339404879e+00, 5.822807106631703e-01, 1.925719353889465e-03
322, 2.144592713403360e-01, -5.770827281676661e-02, 1.009368531184111e+00, 5.946738098065179e-01, 1.890199709424502e-03
323, 2.077202175558890e-01, -5.738202188035686e-02, 1.009566353095688e+00, 6.072339010795417e-01, 1.853188486072638e-03
324, 2.011247989315330e-01, -5.703150512358030e-02, 1.009766656590691e+00, 6.199515528274913e-01, 1.814718545989397e-03
325, 1.946731775047080e-01, -5.665756992593487e-02, 1.009969306637834e+00, 6.328181916558464e-01, 1.774813442768748e-03
326, 1.883653126994450e-01, -5.626108209808330e-02, 1.010174128810225e+00, 6.458227428678827e-01, 1.733506836007681e-03
327, 1.822009702078310e-01, -5.584292546583180e-02, 1.010380915370194e+00, 6.589520168019173e-01, 1.690842495297230e-03
328, 1.761797307773510e-01, -5.540399685008031e-02, 1.010589453689728e+00, 6.721925132989013e-01, 1.646905112961406e-03
329, 1.703009992540400e-01, -5.494520230997531e-02, 1.010799550361048e+00, 6.855319525294090e-01, 1.601764830380134e-03
330, 1.645640139002550e-01, -5.446745448005801e-02, 1.011011029816222e+00, 6.989591873497549e-01, 1.555475404085182e-03
331, 1.589678556741450e-01, -5.397166889254316e-02, 1.011223562096867e+00, 7.124532680715607e-01, 1.508078828133802e-03
332, 1.535114573767690e-01, -5.345875993105773e-02, 1.011436836105061e+00, 7.259944424931637e-01, 1.459680083383280e-03
333, 1.481936133152850e-01, -5.292963965893575e-02, 1.011650549362208e+00, 7.395635056703789e-01, 1.410410643995290e-03
334, 1.430129884302270e-01, -5.238521407848482e-02, 1.011864398987915e+00, 7.531412271481025e-01, 1.360451275957870e-03
335, 1.379681274460720e-01, -5.182638046035423e-02, 1.012078070680527e+00, 7.667076513134944e-01, 1.310035183509404e-03
336, 1.330574640378200e-01, -5.125402533974487e-02, 1.012291177951309e+00, 7.802382392581519e-01, 1.259447181953999e-03
337, 1.282793296795610e-01, -5.066902214524847e-02, 1.012503381343370e+00, 7.937114382151290e-01, 1.209048293142822e-03
338, 1.236319622083540e-01, -5.007222893918521e-02, 1.012714299839816e+00, 8.071030566936792e-01, 1.159203201629663e-03
339, 1.191135151250060e-01, -4.946448834516833e-02, 1.012923541635856e+00, 8.203882182586294e-01, 1.110285040849082e-03
340, 1.147220644565820e-01, -4.884662296676224e-02, 1.013130759149013e+00, 8.335448542342602e-01, 1.062630824185771e-03
341, 1.104556182112870e-01, -4.821943694639060e-02, 1.013335808949531e+00, 8.465638579911999e-01, 1.016584845347787e-03
342, 1.063121233630630e-01, -4.758371320803999e-02, 1.013539959093060e+00, 8.595257408062978e-01, 9.717895349263990e-04
343, 1.022894733944730e-01, -4.694021267187087e-02, 1.013740172281541e+00, 8.722376588205136e-01, 9.277999717382806e-04
344, 9.838551560343448e-02, -4.628967359474944e-02, 1.013933945365080e+00, 8.845406822626646e-01, 8.851779995129993e-04
345, 9.459805783183216e-02, -4.563281073024860e-02, 1.014123342564547e+00, 8.965658724612797e-01, 8.439383778916598e-04
346, 9.092487458410546e-02, -4.497031464160225e-02, 1.014307489934846e+00, 9.082577409717237e-01, 8.034798382070249e-04
347, 8.736371512041483e-02, -4.430285233482104e-02, 1.014485434205592e+00, 9.195557628352002e-01, 7.635183272790697e-04
348, 8.391230598462590e-02, -4.363106518129783e-02, 1.014656444362445e+00, 9.304135245541685e-01, 7.237812301397282e-04
349, 8.056836063629794e-02, -4.295557070633568e-02, 1.014819744555729e+00, 9.407817659496899e-01, 6.839759977903282e-04
350, 7.732958126675092e-02, -4.227696117578635e-02, 1.014974568122181e+00, 9.506118101058143e-01, 6.438072892132240e-04
351, 7.419366526021026e-02, -4.159580435127203e-02, 1.015120000582283e+00, 9.598455949700884e-01, 6.029776286159451e-04
352, 7.115831019240228e-02, -4.091264364521334e-02, 1.015255105168955e+00, 9.684236434100905e-01, 5.611763245924787e-04
353, 6.822121738866474e-02, -4.022799830314446e-02, 1.015378851665187e+00, 9.762805449787971e-01, 5.180781199310677e-04
354, 6.538009589133059e-02, -3.954236389493454e-02, 1.015490155099392e+00, 9.833474127562889e-01, 4.732576134760794e-04
355, 6.263266819094854e-02, -3.885621247281111e-02, 1.015587858088254e+00, 9.895507622638323e-01, 4.260951238907848e-04
356, 5.997667081241873e-02, -3.816999333835450e-02, 1.015670752494338e+00, 9.948138865463232e-01, 3.757594859691863e-04
